P (bar) | T: -2σ | T: -1σ  | T: median | T: +1σ | T: +2σ 
1.00000000e+01 3.67974849e+02 5.52111017e+02 1.02213273e+03 1.32744135e+03 1.44481395e+03 
8.30217568e+00 3.69831984e+02 5.54231981e+02 1.01989752e+03 1.32355011e+03 1.44090101e+03 
6.89261210e+00 3.74580777e+02 5.56949508e+02 1.01888370e+03 1.31810090e+03 1.43460327e+03 
5.72236766e+00 3.76282437e+02 5.60125553e+02 1.01633375e+03 1.31040318e+03 1.42768342e+03 
4.75081016e+00 3.79954077e+02 5.64288673e+02 1.01252735e+03 1.30241642e+03 1.41955766e+03 
3.94420606e+00 3.85451214e+02 5.69620280e+02 1.00887311e+03 1.29622852e+03 1.41232412e+03 
3.27454916e+00 3.95381712e+02 5.75141154e+02 1.00291381e+03 1.28970079e+03 1.40286284e+03 
2.71858824e+00 4.02890981e+02 5.79355774e+02 1.00184539e+03 1.28241679e+03 1.39393754e+03 
2.25701972e+00 4.10135268e+02 5.82564598e+02 9.96917280e+02 1.27564390e+03 1.38846944e+03 
1.87381742e+00 4.12422144e+02 5.87659731e+02 9.91854959e+02 1.26770593e+03 1.38121334e+03 
1.55567614e+00 4.14712406e+02 5.93655333e+02 9.87731686e+02 1.25991195e+03 1.37394649e+03 
1.29154967e+00 4.18128379e+02 5.97997934e+02 9.85816263e+02 1.25173782e+03 1.36654705e+03 
1.07226722e+00 4.21025784e+02 6.00563614e+02 9.81120871e+02 1.24634652e+03 1.35847158e+03 
8.90215085e-01 4.22315352e+02 6.02557675e+02 9.76404351e+02 1.23681925e+03 1.34925747e+03 
7.39072203e-01 4.30122727e+02 6.03192074e+02 9.69950222e+02 1.22566891e+03 1.33936612e+03 
6.13590727e-01 4.38546209e+02 6.06704810e+02 9.68327348e+02 1.21761394e+03 1.33270924e+03 
5.09413801e-01 4.44582137e+02 6.09364091e+02 9.64483088e+02 1.20912637e+03 1.32616827e+03 
4.22924287e-01 4.50142207e+02 6.14271047e+02 9.61606637e+02 1.19988577e+03 1.31797004e+03 
3.51119173e-01 4.56965688e+02 6.18592050e+02 9.59583497e+02 1.19239181e+03 1.31001661e+03 
2.91505306e-01 4.62513910e+02 6.21128010e+02 9.57797257e+02 1.18268445e+03 1.30194079e+03 
2.42012826e-01 4.68062133e+02 6.24347202e+02 9.56011016e+02 1.17544486e+03 1.29432072e+03 
2.00923300e-01 4.69146316e+02 6.27158100e+02 9.53596797e+02 1.16689118e+03 1.28938873e+03 
1.66810054e-01 4.69487207e+02 6.32060223e+02 9.48373264e+02 1.16008351e+03 1.28445673e+03 
1.38488637e-01 4.75539111e+02 6.35624371e+02 9.42945722e+02 1.15365464e+03 1.27941132e+03 
1.14975700e-01 4.82382399e+02 6.40131165e+02 9.37926198e+02 1.14639947e+03 1.27213924e+03 
9.54548457e-02 4.80530713e+02 6.44783365e+02 9.34611284e+02 1.13802594e+03 1.26486716e+03 
7.92482898e-02 4.86241307e+02 6.48946890e+02 9.30303563e+02 1.13128256e+03 1.25820480e+03 
6.57933225e-02 4.92131082e+02 6.52302814e+02 9.26057944e+02 1.12515734e+03 1.25309371e+03 
5.46227722e-02 4.98020856e+02 6.55025834e+02 9.22258472e+02 1.11871347e+03 1.24798263e+03 
4.53487851e-02 5.02134960e+02 6.56452264e+02 9.17043627e+02 1.11120821e+03 1.24287154e+03 
3.76493581e-02 5.08305821e+02 6.60357734e+02 9.13036670e+02 1.10302858e+03 1.23776045e+03 
3.12571585e-02 5.12914517e+02 6.64431236e+02 9.09798415e+02 1.09785792e+03 1.23354350e+03 
2.59502421e-02 5.15155975e+02 6.67234804e+02 9.07898866e+02 1.09175089e+03 1.22753828e+03 
2.15443469e-02 5.18480336e+02 6.70582494e+02 9.03810555e+02 1.08887189e+03 1.22023944e+03 
1.78864953e-02 5.19638893e+02 6.75397441e+02 9.01203247e+02 1.08367020e+03 1.21327416e+03 
1.48496826e-02 5.21880351e+02 6.77779563e+02 8.96291825e+02 1.08039235e+03 1.20561815e+03 
1.23284674e-02 5.24121810e+02 6.79606312e+02 8.91408807e+02 1.07512357e+03 1.19835287e+03 
1.02353102e-02 5.26363269e+02 6.82577185e+02 8.85278694e+02 1.06856218e+03 1.19108758e+03 
8.49753436e-03 5.29043584e+02 6.86591658e+02 8.80075740e+02 1.06377510e+03 1.18519855e+03 
7.05480231e-03 5.30846186e+02 6.88699850e+02 8.71941163e+02 1.05846640e+03 1.18074668e+03 
5.85702082e-03 5.33087645e+02 6.91346653e+02 8.68681766e+02 1.05354649e+03 1.17256672e+03 
4.86260158e-03 5.33673325e+02 6.90855345e+02 8.65949304e+02 1.05012902e+03 1.16599512e+03 
4.03701726e-03 5.34080433e+02 6.94928999e+02 8.60421172e+02 1.04602373e+03 1.16289588e+03 
3.35160265e-03 5.35339645e+02 6.94846346e+02 8.53751370e+02 1.04230293e+03 1.15598858e+03 
2.78255940e-03 5.37379665e+02 6.92693964e+02 8.49075862e+02 1.03678852e+03 1.14941036e+03 
2.31012970e-03 5.37858069e+02 6.92883413e+02 8.42906275e+02 1.03063418e+03 1.14293553e+03 
1.91791026e-03 5.36979343e+02 6.95344678e+02 8.39011998e+02 1.02339757e+03 1.13933757e+03 
1.59228279e-03 5.35290477e+02 6.93245494e+02 8.35423316e+02 1.01780052e+03 1.13573961e+03 
1.32194115e-03 5.33324545e+02 6.89412442e+02 8.32675765e+02 1.01433596e+03 1.12905480e+03 
1.09749877e-03 5.31627568e+02 6.90079258e+02 8.27881078e+02 1.01096138e+03 1.12397612e+03 
9.11162756e-04 5.30477149e+02 6.90205903e+02 8.26784854e+02 1.00763786e+03 1.12065282e+03 
7.56463328e-04 5.31887394e+02 6.87288670e+02 8.25053669e+02 1.00380285e+03 1.11732952e+03 
6.28029144e-04 5.29215651e+02 6.86254725e+02 8.24139193e+02 9.98474931e+02 1.11092493e+03 
5.21400829e-04 5.27025891e+02 6.81797501e+02 8.20986578e+02 9.94344908e+02 1.10652010e+03 
4.32876128e-04 5.25875471e+02 6.74188846e+02 8.20496623e+02 9.92639679e+02 1.10097632e+03 
3.59381366e-04 5.25168986e+02 6.69872772e+02 8.20381673e+02 9.91805332e+02 1.09693927e+03 
2.98364724e-04 5.23574632e+02 6.64786198e+02 8.20748008e+02 9.86814195e+02 1.09491757e+03 
2.47707636e-04 5.22424213e+02 6.60956714e+02 8.17178816e+02 9.84778309e+02 1.09051089e+03 
2.05651231e-04 5.21273794e+02 6.55259771e+02 8.17051413e+02 9.85632568e+02 1.08777156e+03 
1.70735265e-04 5.20123374e+02 6.49653431e+02 8.18618626e+02 9.82060186e+02 1.08515929e+03 
1.41747416e-04 5.14944966e+02 6.42557053e+02 8.17602896e+02 9.78461463e+02 1.08185935e+03 
1.17681195e-04 5.10038104e+02 6.38119404e+02 8.18288615e+02 9.78129918e+02 1.07740482e+03 
9.77009957e-05 5.10980460e+02 6.29873487e+02 8.19938256e+02 9.75417749e+02 1.07550130e+03 
8.11130831e-05 5.04383419e+02 6.21331232e+02 8.18642273e+02 9.73140171e+02 1.07356555e+03 
6.73415066e-05 4.97787244e+02 6.15190048e+02 8.12621854e+02 9.71771776e+02 1.07198329e+03 
5.59081018e-05 4.89061766e+02 6.06440446e+02 8.11801614e+02 9.67859295e+02 1.07040170e+03 
4.64158883e-05 4.84485497e+02 6.02973144e+02 8.11810033e+02 9.65125564e+02 1.06746187e+03 
3.85352859e-05 4.72923332e+02 5.94201640e+02 8.09809395e+02 9.65619802e+02 1.06451309e+03 
3.19926714e-05 4.63900945e+02 5.88669937e+02 8.08156252e+02 9.64529440e+02 1.06272303e+03 
2.65608778e-05 4.58169003e+02 5.80247281e+02 8.08732717e+02 9.63719063e+02 1.06218053e+03 
2.20513074e-05 4.49782917e+02 5.74387277e+02 8.07600397e+02 9.65340899e+02 1.06265564e+03 
1.83073828e-05 4.40025871e+02 5.67201006e+02 8.05128395e+02 9.65110017e+02 1.06240455e+03 
1.51991108e-05 4.29615576e+02 5.62938842e+02 8.05114127e+02 9.64093848e+02 1.06320388e+03 
1.26185688e-05 4.19986645e+02 5.57570400e+02 8.02638758e+02 9.62804566e+02 1.06813184e+03 
1.04761575e-05 4.11755192e+02 5.55736664e+02 8.01540395e+02 9.63747429e+02 1.07231184e+03 
8.69749003e-06 4.08916817e+02 5.51759621e+02 8.01403809e+02 9.62906552e+02 1.07569959e+03 
7.22080902e-06 4.06913246e+02 5.49745031e+02 8.01050894e+02 9.62966493e+02 1.07633386e+03 
5.99484250e-06 4.05398879e+02 5.48830171e+02 8.00987324e+02 9.63255538e+02 1.07563962e+03 
4.97702356e-06 4.03861425e+02 5.47594741e+02 8.00282301e+02 9.63531165e+02 1.07521082e+03 
4.13201240e-06 4.02992228e+02 5.47124418e+02 7.99836056e+02 9.63864780e+02 1.07496840e+03 
3.43046929e-06 4.02544054e+02 5.47089160e+02 7.99605964e+02 9.64036798e+02 1.07484340e+03 
2.84803587e-06 4.02333912e+02 5.47072628e+02 7.99498077e+02 9.64117455e+02 1.07478480e+03 
2.36448941e-06 4.02244545e+02 5.47051269e+02 7.99452196e+02 9.64151756e+02 1.07475987e+03 
1.96304065e-06 4.02210177e+02 5.47039765e+02 7.99434552e+02 9.64164947e+02 1.07475029e+03 
1.62975083e-06 4.02198289e+02 5.47035786e+02 7.99428448e+02 9.64169510e+02 1.07474697e+03 
1.35304777e-06 4.02194649e+02 5.47034567e+02 7.99426579e+02 9.64170907e+02 1.07474595e+03 
1.12332403e-06 4.02193724e+02 5.47034258e+02 7.99426105e+02 9.64171262e+02 1.07474570e+03 
9.32603347e-07 4.02193602e+02 5.47034217e+02 7.99426042e+02 9.64171309e+02 1.07474566e+03 
7.74263683e-07 4.02193602e+02 5.47034217e+02 7.99426042e+02 9.64171309e+02 1.07474566e+03 
6.42807312e-07 4.02193602e+02 5.47034217e+02 7.99426042e+02 9.64171309e+02 1.07474566e+03 
5.33669923e-07 4.02193602e+02 5.47034217e+02 7.99426042e+02 9.64171309e+02 1.07474566e+03 
4.43062146e-07 4.02193602e+02 5.47034217e+02 7.99426042e+02 9.64171309e+02 1.07474566e+03 
3.67837977e-07 4.02193602e+02 5.47034217e+02 7.99426042e+02 9.64171309e+02 1.07474566e+03 
3.05385551e-07 4.02193602e+02 5.47034217e+02 7.99426042e+02 9.64171309e+02 1.07474566e+03 
2.53536449e-07 4.02193602e+02 5.47034217e+02 7.99426042e+02 9.64171309e+02 1.07474566e+03 
2.10490414e-07 4.02193602e+02 5.47034217e+02 7.99426042e+02 9.64171309e+02 1.07474566e+03 
1.74752840e-07 4.02193602e+02 5.47034217e+02 7.99426042e+02 9.64171309e+02 1.07474566e+03 
1.45082878e-07 4.02193602e+02 5.47034217e+02 7.99426042e+02 9.64171309e+02 1.07474566e+03 
1.20450354e-07 4.02193602e+02 5.47034217e+02 7.99426042e+02 9.64171309e+02 1.07474566e+03 
1.00000000e-07 4.02193602e+02 5.47034217e+02 7.99426042e+02 9.64171309e+02 1.07474566e+03 
