P (bar) | T: -2σ | T: -1σ  | T: median | T: +1σ | T: +2σ 
1.00000000e+02 1.20409000e+03 1.22957693e+03 1.29169992e+03 1.42390141e+03 1.70871147e+03 
8.11130831e+01 1.20408959e+03 1.22957577e+03 1.29169954e+03 1.42389858e+03 1.70870825e+03 
6.57933225e+01 1.20408815e+03 1.22957169e+03 1.29169821e+03 1.42388962e+03 1.70869692e+03 
5.33669923e+01 1.20408374e+03 1.22955924e+03 1.29169414e+03 1.42386255e+03 1.70866230e+03 
4.32876128e+01 1.20407173e+03 1.22952526e+03 1.29168304e+03 1.42378867e+03 1.70856780e+03 
3.51119173e+01 1.20403416e+03 1.22946021e+03 1.29165575e+03 1.42360708e+03 1.70833551e+03 
2.84803587e+01 1.20393948e+03 1.22937720e+03 1.29159512e+03 1.42320368e+03 1.70781952e+03 
2.31012970e+01 1.20374888e+03 1.22924861e+03 1.29126758e+03 1.42239163e+03 1.70678082e+03 
1.87381742e+01 1.20355939e+03 1.22891156e+03 1.29090323e+03 1.42090583e+03 1.70488031e+03 
1.51991108e+01 1.20293295e+03 1.22846602e+03 1.28982405e+03 1.41842601e+03 1.70170834e+03 
1.23284674e+01 1.20195159e+03 1.22788231e+03 1.28795691e+03 1.41465759e+03 1.69685780e+03 
1.00000000e+01 1.20134765e+03 1.22718400e+03 1.28692284e+03 1.41117968e+03 1.69002425e+03 
8.11130831e+00 1.19965129e+03 1.22530982e+03 1.28381198e+03 1.40619353e+03 1.68109442e+03 
6.57933225e+00 1.19700427e+03 1.22242686e+03 1.28004574e+03 1.40005549e+03 1.66962194e+03 
5.33669923e+00 1.19472248e+03 1.22004633e+03 1.27691367e+03 1.39310732e+03 1.65511183e+03 
4.32876128e+00 1.19177311e+03 1.21646867e+03 1.27179805e+03 1.38352671e+03 1.64065778e+03 
3.51119173e+00 1.18730767e+03 1.21343859e+03 1.26717264e+03 1.37315364e+03 1.62437782e+03 
2.84803587e+00 1.18203467e+03 1.20910766e+03 1.26336291e+03 1.36439905e+03 1.60829463e+03 
2.31012970e+00 1.17201502e+03 1.20656100e+03 1.25934383e+03 1.35698153e+03 1.59409121e+03 
1.87381742e+00 1.16399348e+03 1.20289112e+03 1.25479561e+03 1.34754147e+03 1.57976178e+03 
1.51991108e+00 1.15660153e+03 1.19932414e+03 1.24999939e+03 1.33895286e+03 1.56115852e+03 
1.23284674e+00 1.14677980e+03 1.19601078e+03 1.24543355e+03 1.33070345e+03 1.54548780e+03 
1.00000000e+00 1.13738578e+03 1.19196611e+03 1.24236065e+03 1.31986336e+03 1.53130193e+03 
8.11130831e-01 1.12911806e+03 1.18677416e+03 1.23884714e+03 1.31144094e+03 1.51493079e+03 
6.57933225e-01 1.12008676e+03 1.18138035e+03 1.23452353e+03 1.30444815e+03 1.49730228e+03 
5.33669923e-01 1.11249509e+03 1.17660457e+03 1.22948532e+03 1.29754788e+03 1.47967378e+03 
4.32876128e-01 1.10337005e+03 1.17264724e+03 1.22496157e+03 1.29105153e+03 1.46442515e+03 
3.51119173e-01 1.09399630e+03 1.16927522e+03 1.22072899e+03 1.28347169e+03 1.45649815e+03 
2.84803587e-01 1.08462256e+03 1.16321054e+03 1.21572286e+03 1.27643763e+03 1.44073477e+03 
2.31012970e-01 1.07478661e+03 1.15795732e+03 1.21197549e+03 1.27143546e+03 1.42497139e+03 
1.87381742e-01 1.06381223e+03 1.14989847e+03 1.20719784e+03 1.26611021e+03 1.40920801e+03 
1.51991108e-01 1.05290958e+03 1.14345165e+03 1.20393827e+03 1.26202309e+03 1.39135020e+03 
1.23284674e-01 1.04250485e+03 1.13511708e+03 1.19989856e+03 1.25771747e+03 1.37714055e+03 
1.00000000e-01 1.03389279e+03 1.12662684e+03 1.19464147e+03 1.25219746e+03 1.36480062e+03 
8.11130831e-02 1.02459906e+03 1.11793494e+03 1.19016302e+03 1.24769271e+03 1.34903262e+03 
6.57933225e-02 1.01273491e+03 1.10760399e+03 1.18623290e+03 1.24340589e+03 1.33451160e+03 
5.33669923e-02 1.00235880e+03 1.09982624e+03 1.18161242e+03 1.23966710e+03 1.32030195e+03 
4.32876128e-02 9.92057555e+02 1.08923525e+03 1.17600507e+03 1.23548503e+03 1.31109314e+03 
3.51119173e-02 9.81210386e+02 1.07820906e+03 1.17285466e+03 1.23093853e+03 1.30047338e+03 
2.84803587e-02 9.72175337e+02 1.06930350e+03 1.16966199e+03 1.22739725e+03 1.28974474e+03 
2.31012970e-02 9.59516048e+02 1.06004231e+03 1.16663077e+03 1.22459861e+03 1.28320569e+03 
1.87381742e-02 9.49593547e+02 1.04936523e+03 1.16253975e+03 1.22082897e+03 1.27820282e+03 
1.51991108e-02 9.39861077e+02 1.03849831e+03 1.15814254e+03 1.21697137e+03 1.27381088e+03 
1.23284674e-02 9.30493943e+02 1.02673136e+03 1.15388423e+03 1.21397869e+03 1.26884441e+03 
1.00000000e-02 9.21074985e+02 1.01500660e+03 1.14955612e+03 1.21084065e+03 1.26269946e+03 
8.11130831e-03 9.09775640e+02 1.00375188e+03 1.14475708e+03 1.20769691e+03 1.25803598e+03 
6.57933225e-03 8.98154508e+02 9.92231451e+02 1.14091660e+03 1.20435995e+03 1.25492585e+03 
5.33669923e-03 8.86533377e+02 9.80069148e+02 1.13664522e+03 1.20084539e+03 1.25039069e+03 
4.32876128e-03 8.74912245e+02 9.68478689e+02 1.13186032e+03 1.19847451e+03 1.24597467e+03 
3.51119173e-03 8.63146737e+02 9.58108405e+02 1.12732063e+03 1.19553551e+03 1.24198717e+03 
2.84803587e-03 8.51669982e+02 9.46414721e+02 1.12263786e+03 1.19215679e+03 1.23887105e+03 
2.31012970e-03 8.40048850e+02 9.33757601e+02 1.11850014e+03 1.18916532e+03 1.23715543e+03 
1.87381742e-03 8.28298985e+02 9.22257809e+02 1.11452129e+03 1.18646307e+03 1.23408433e+03 
1.51991108e-03 8.16103757e+02 9.10199034e+02 1.11076159e+03 1.18340778e+03 1.23255341e+03 
1.23284674e-03 8.05185455e+02 8.99375677e+02 1.10567839e+03 1.18048043e+03 1.23102250e+03 
1.00000000e-03 7.92801132e+02 8.89095279e+02 1.10140392e+03 1.17811446e+03 1.22949159e+03 
8.11130831e-04 7.80107557e+02 8.76938580e+02 1.09760955e+03 1.17572355e+03 1.22781916e+03 
6.57933225e-04 7.69795416e+02 8.64302138e+02 1.09345043e+03 1.17309027e+03 1.22639876e+03 
5.33669923e-04 7.58700929e+02 8.52531576e+02 1.08973694e+03 1.17053773e+03 1.22431881e+03 
4.32876128e-04 7.46261382e+02 8.40577950e+02 1.08630449e+03 1.16797460e+03 1.22343043e+03 
3.51119173e-04 7.33735727e+02 8.27726215e+02 1.08210198e+03 1.16501553e+03 1.22188134e+03 
2.84803587e-04 7.22236114e+02 8.16445962e+02 1.07915206e+03 1.16337938e+03 1.22012108e+03 
2.31012970e-04 7.07814047e+02 8.03436955e+02 1.07442625e+03 1.16144033e+03 1.21814854e+03 
1.87381742e-04 6.95902303e+02 7.90994004e+02 1.07107770e+03 1.15887074e+03 1.21656793e+03 
1.51991108e-04 6.83056444e+02 7.77045705e+02 1.06673342e+03 1.15639381e+03 1.21558793e+03 
1.23284674e-04 6.68611435e+02 7.64503102e+02 1.06253870e+03 1.15418043e+03 1.21418246e+03 
1.00000000e-04 6.54302432e+02 7.51364430e+02 1.05726552e+03 1.15257991e+03 1.21324396e+03 
8.11130831e-05 6.39928049e+02 7.38599875e+02 1.05323193e+03 1.14980622e+03 1.21205430e+03 
6.57933225e-05 6.27246048e+02 7.23994613e+02 1.04835695e+03 1.14758968e+03 1.21162683e+03 
5.33669923e-05 6.14527793e+02 7.11224278e+02 1.04333892e+03 1.14596075e+03 1.21107699e+03 
4.32876128e-05 6.00628220e+02 6.99803596e+02 1.03839872e+03 1.14297463e+03 1.21033084e+03 
3.51119173e-05 5.88626200e+02 6.86681520e+02 1.03411108e+03 1.14112454e+03 1.20905816e+03 
2.84803587e-05 5.74680734e+02 6.74973206e+02 1.02989561e+03 1.13985952e+03 1.20795524e+03 
2.31012970e-05 5.60977340e+02 6.64367145e+02 1.02627277e+03 1.13766072e+03 1.20659584e+03 
1.87381742e-05 5.48491808e+02 6.55661009e+02 1.02257554e+03 1.13529817e+03 1.20545695e+03 
1.51991108e-05 5.39977139e+02 6.46475736e+02 1.02020252e+03 1.13320799e+03 1.20442252e+03 
1.23284674e-05 5.30801475e+02 6.38579483e+02 1.01773505e+03 1.13148944e+03 1.20352598e+03 
1.00000000e-05 5.20310832e+02 6.31745255e+02 1.01590818e+03 1.13020877e+03 1.20279236e+03 
8.11130831e-06 5.12226489e+02 6.26371069e+02 1.01451017e+03 1.12949115e+03 1.20224313e+03 
6.57933225e-06 5.07017793e+02 6.22259595e+02 1.01343886e+03 1.12885725e+03 1.20218789e+03 
5.33669923e-06 5.04084943e+02 6.19787151e+02 1.01262023e+03 1.12837367e+03 1.20215177e+03 
4.32876128e-06 5.02616317e+02 6.18142536e+02 1.01205781e+03 1.12807557e+03 1.20213013e+03 
3.51119173e-06 5.01813657e+02 6.17120412e+02 1.01175042e+03 1.12791265e+03 1.20211830e+03 
2.84803587e-06 5.01414925e+02 6.16612659e+02 1.01159773e+03 1.12783172e+03 1.20211243e+03 
2.31012970e-06 5.01235426e+02 6.16384080e+02 1.01152898e+03 1.12779528e+03 1.20210978e+03 
1.87381742e-06 5.01162400e+02 6.16291089e+02 1.01150102e+03 1.12778046e+03 1.20210871e+03 
1.51991108e-06 5.01135649e+02 6.16257022e+02 1.01149077e+03 1.12777503e+03 1.20210831e+03 
1.23284674e-06 5.01126893e+02 6.16245872e+02 1.01148742e+03 1.12777325e+03 1.20210818e+03 
1.00000000e-06 5.01124399e+02 6.16242697e+02 1.01148647e+03 1.12777275e+03 1.20210815e+03 
8.11130831e-07 5.01123856e+02 6.16242005e+02 1.01148626e+03 1.12777264e+03 1.20210814e+03 
6.57933225e-07 5.01123856e+02 6.16242005e+02 1.01148626e+03 1.12777264e+03 1.20210814e+03 
5.33669923e-07 5.01123856e+02 6.16242005e+02 1.01148626e+03 1.12777264e+03 1.20210814e+03 
4.32876128e-07 5.01123856e+02 6.16242005e+02 1.01148626e+03 1.12777264e+03 1.20210814e+03 
3.51119173e-07 5.01123856e+02 6.16242005e+02 1.01148626e+03 1.12777264e+03 1.20210814e+03 
2.84803587e-07 5.01123856e+02 6.16242005e+02 1.01148626e+03 1.12777264e+03 1.20210814e+03 
2.31012970e-07 5.01123856e+02 6.16242005e+02 1.01148626e+03 1.12777264e+03 1.20210814e+03 
1.87381742e-07 5.01123856e+02 6.16242005e+02 1.01148626e+03 1.12777264e+03 1.20210814e+03 
1.51991108e-07 5.01123856e+02 6.16242005e+02 1.01148626e+03 1.12777264e+03 1.20210814e+03 
1.23284674e-07 5.01123856e+02 6.16242005e+02 1.01148626e+03 1.12777264e+03 1.20210814e+03 
1.00000000e-07 5.01123856e+02 6.16242005e+02 1.01148626e+03 1.12777264e+03 1.20210814e+03 
