P (bar) | T: -2σ | T: -1σ  | T: median | T: +1σ | T: +2σ 
1.00000000e+02 1.21081532e+03 1.26597249e+03 1.37118350e+03 1.51717765e+03 1.66806315e+03 
8.11130831e+01 1.21081297e+03 1.26596997e+03 1.37118062e+03 1.51717444e+03 1.66805935e+03 
6.57933225e+01 1.21080469e+03 1.26596115e+03 1.37117049e+03 1.51716318e+03 1.66804602e+03 
5.33669923e+01 1.21077939e+03 1.26593420e+03 1.37113956e+03 1.51712875e+03 1.66800529e+03 
4.32876128e+01 1.21071034e+03 1.26586062e+03 1.37105511e+03 1.51703479e+03 1.66789410e+03 
3.51119173e+01 1.21054060e+03 1.26567977e+03 1.37084755e+03 1.51680382e+03 1.66762080e+03 
2.84803587e+01 1.21016355e+03 1.26527803e+03 1.37038648e+03 1.51629075e+03 1.66701369e+03 
2.31012970e+01 1.20940454e+03 1.26446931e+03 1.36945832e+03 1.51525792e+03 1.66579157e+03 
1.87381742e+01 1.20801577e+03 1.26298960e+03 1.36776008e+03 1.51341066e+03 1.66355546e+03 
1.51991108e+01 1.20569791e+03 1.26051996e+03 1.36492569e+03 1.51035893e+03 1.65982336e+03 
1.23284674e+01 1.20215345e+03 1.25678190e+03 1.36059137e+03 1.50555278e+03 1.65411628e+03 
1.00000000e+01 1.19730003e+03 1.25170967e+03 1.35448510e+03 1.49880557e+03 1.64607602e+03 
8.11130831e+00 1.19096476e+03 1.24481858e+03 1.34650564e+03 1.48989089e+03 1.63556931e+03 
6.57933225e+00 1.18322266e+03 1.23623456e+03 1.33710016e+03 1.47879510e+03 1.62272942e+03 
5.33669923e+00 1.17428969e+03 1.22636604e+03 1.32606655e+03 1.46624893e+03 1.60791455e+03 
4.32876128e+00 1.16445468e+03 1.21580186e+03 1.31338000e+03 1.45177659e+03 1.59160369e+03 
3.51119173e+00 1.15367759e+03 1.20447365e+03 1.30070793e+03 1.43620395e+03 1.57427884e+03 
2.84803587e+00 1.14236671e+03 1.19228454e+03 1.28713319e+03 1.42030173e+03 1.55633897e+03 
2.31012970e+00 1.13084538e+03 1.17968053e+03 1.27321077e+03 1.40420938e+03 1.53790829e+03 
1.87381742e+00 1.11994468e+03 1.16776412e+03 1.25928396e+03 1.38782036e+03 1.51870541e+03 
1.51991108e+00 1.10905567e+03 1.15533812e+03 1.24530836e+03 1.37172895e+03 1.49942914e+03 
1.23284674e+00 1.09772353e+03 1.14326035e+03 1.23143460e+03 1.35538849e+03 1.48090283e+03 
1.00000000e+00 1.08579372e+03 1.13124159e+03 1.21762254e+03 1.33863295e+03 1.46390887e+03 
8.11130831e-01 1.07425312e+03 1.11924242e+03 1.20323278e+03 1.32194847e+03 1.44550032e+03 
6.57933225e-01 1.06251645e+03 1.10707083e+03 1.18951910e+03 1.30536159e+03 1.42741595e+03 
5.33669923e-01 1.05077978e+03 1.09471561e+03 1.17580543e+03 1.29016911e+03 1.40991934e+03 
4.32876128e-01 1.03904311e+03 1.08241960e+03 1.16250757e+03 1.27461524e+03 1.39242272e+03 
3.51119173e-01 1.02730644e+03 1.07061889e+03 1.14915416e+03 1.25794309e+03 1.37388826e+03 
2.84803587e-01 1.01556978e+03 1.05875868e+03 1.13535120e+03 1.24166354e+03 1.35465997e+03 
2.31012970e-01 1.00383311e+03 1.04614692e+03 1.12127213e+03 1.22549130e+03 1.33543167e+03 
1.87381742e-01 9.92096438e+02 1.03435792e+03 1.10754471e+03 1.20851512e+03 1.31620337e+03 
1.51991108e-01 9.80439470e+02 1.02210293e+03 1.09325155e+03 1.19240477e+03 1.29746323e+03 
1.23284674e-01 9.69353277e+02 1.00999355e+03 1.07912152e+03 1.17656873e+03 1.28045207e+03 
1.00000000e-01 9.57947491e+02 9.97732498e+02 1.06474803e+03 1.16054537e+03 1.26144367e+03 
8.11130831e-02 9.45883015e+02 9.85407278e+02 1.05037312e+03 1.14475816e+03 1.24260242e+03 
6.57933225e-02 9.33928471e+02 9.72821381e+02 1.03656578e+03 1.12784555e+03 1.22342686e+03 
5.33669923e-02 9.21954377e+02 9.60809643e+02 1.02271862e+03 1.11133923e+03 1.20441845e+03 
4.32876128e-02 9.10170702e+02 9.48946700e+02 1.00901775e+03 1.09550663e+03 1.18584273e+03 
3.51119173e-02 8.98203085e+02 9.36838198e+02 9.95793610e+02 1.08004532e+03 1.16703115e+03 
2.84803587e-02 8.86466416e+02 9.24384964e+02 9.81784163e+02 1.06497839e+03 1.14755337e+03 
2.31012970e-02 8.74729747e+02 9.12158724e+02 9.68131191e+02 1.04990922e+03 1.12838483e+03 
1.87381742e-02 8.62993077e+02 9.00278012e+02 9.53745723e+02 1.03362764e+03 1.10937643e+03 
1.51991108e-02 8.51256408e+02 8.87160255e+02 9.40131227e+02 1.01753671e+03 1.09036802e+03 
1.23284674e-02 8.39858006e+02 8.75604489e+02 9.26275130e+02 1.00121898e+03 1.07135962e+03 
1.00000000e-02 8.28463028e+02 8.62614739e+02 9.12465592e+02 9.84297231e+02 1.05235121e+03 
8.11130831e-03 8.16046401e+02 8.50202846e+02 8.98967632e+02 9.67264663e+02 1.03334281e+03 
6.57933225e-03 8.03824015e+02 8.37602107e+02 8.84922279e+02 9.51783472e+02 1.01433440e+03 
5.33669923e-03 7.91994136e+02 8.24795835e+02 8.71333998e+02 9.35502488e+02 9.95325998e+02 
4.32876128e-03 7.80603558e+02 8.12189209e+02 8.57319584e+02 9.18879733e+02 9.77068809e+02 
3.51119173e-03 7.69099725e+02 7.99779836e+02 8.43411824e+02 9.02918374e+02 9.60186537e+02 
2.84803587e-03 7.56755704e+02 7.87531070e+02 8.29500488e+02 8.86814139e+02 9.43086601e+02 
2.31012970e-03 7.44217890e+02 7.74977855e+02 8.15667730e+02 8.70492260e+02 9.26421992e+02 
1.87381742e-03 7.31345356e+02 7.61938117e+02 8.01925333e+02 8.55174045e+02 9.09314468e+02 
1.51991108e-03 7.18585133e+02 7.49690607e+02 7.88387570e+02 8.38870774e+02 8.92428402e+02 
1.23284674e-03 7.06434982e+02 7.37247529e+02 7.74402140e+02 8.23726534e+02 8.75542335e+02 
1.00000000e-03 6.93789915e+02 7.24777641e+02 7.61169242e+02 8.07988939e+02 8.58656269e+02 
8.11130831e-04 6.80625545e+02 7.11764207e+02 7.47478267e+02 7.92593847e+02 8.42010630e+02 
6.57933225e-04 6.68778759e+02 6.98833927e+02 7.32599952e+02 7.77303086e+02 8.24884136e+02 
5.33669923e-04 6.56453635e+02 6.85967106e+02 7.18932844e+02 7.61354420e+02 8.07892295e+02 
4.32876128e-04 6.44399197e+02 6.73015980e+02 7.05457790e+02 7.46084866e+02 7.91112003e+02 
3.51119173e-04 6.32077910e+02 6.59857861e+02 6.91994167e+02 7.31474724e+02 7.75371558e+02 
2.84803587e-04 6.19371517e+02 6.46565201e+02 6.77860217e+02 7.15893936e+02 7.59790775e+02 
2.31012970e-04 6.07070934e+02 6.32953725e+02 6.63352818e+02 7.00314176e+02 7.45053384e+02 
1.87381742e-04 5.93796501e+02 6.19738851e+02 6.48934694e+02 6.84960263e+02 7.28821883e+02 
1.51991108e-04 5.80445851e+02 6.06279060e+02 6.35221575e+02 6.69534728e+02 7.12643929e+02 
1.23284674e-04 5.67375941e+02 5.92347704e+02 6.21201289e+02 6.54275785e+02 6.98904246e+02 
1.00000000e-04 5.54950518e+02 5.78651204e+02 6.07276385e+02 6.39524760e+02 6.84838319e+02 
8.11130831e-05 5.41149226e+02 5.65682100e+02 5.93207016e+02 6.25704108e+02 6.68504503e+02 
6.57933225e-05 5.28478388e+02 5.51593116e+02 5.79409028e+02 6.10661218e+02 6.54661637e+02 
5.33669923e-05 5.14675745e+02 5.37869893e+02 5.65162482e+02 5.97214982e+02 6.40123583e+02 
4.32876128e-05 5.00464232e+02 5.23178432e+02 5.50844618e+02 5.83587449e+02 6.22980020e+02 
3.51119173e-05 4.84839648e+02 5.08254139e+02 5.36632613e+02 5.70189930e+02 6.09081498e+02 
2.84803587e-05 4.69386924e+02 4.94332252e+02 5.23002981e+02 5.56682621e+02 5.97178655e+02 
2.31012970e-05 4.55567622e+02 4.80886229e+02 5.09996114e+02 5.44098994e+02 5.86303689e+02 
1.87381742e-05 4.43123887e+02 4.67512161e+02 4.97418614e+02 5.31848765e+02 5.75604990e+02 
1.51991108e-05 4.29906336e+02 4.56121443e+02 4.86659519e+02 5.20892196e+02 5.65141650e+02 
1.23284674e-05 4.19320624e+02 4.46498402e+02 4.76802244e+02 5.11730295e+02 5.55373319e+02 
1.00000000e-05 4.09801162e+02 4.37894409e+02 4.68451238e+02 5.04987816e+02 5.48822755e+02 
8.11130831e-06 4.03463145e+02 4.32030863e+02 4.62482727e+02 4.98586160e+02 5.42502352e+02 
6.57933225e-06 3.99239837e+02 4.27013870e+02 4.58500230e+02 4.94552741e+02 5.38966996e+02 
5.33669923e-06 3.96247733e+02 4.24181625e+02 4.55535330e+02 4.91656319e+02 5.36655082e+02 
4.32876128e-06 3.94404193e+02 4.22459065e+02 4.53920836e+02 4.89727507e+02 5.35269881e+02 
3.51119173e-06 3.93396628e+02 4.21517621e+02 4.52983105e+02 4.88776028e+02 5.34512817e+02 
2.84803587e-06 3.92835096e+02 4.21049947e+02 4.52568533e+02 4.88281412e+02 5.34136736e+02 
2.31012970e-06 3.92561467e+02 4.20840456e+02 4.52391661e+02 4.88058748e+02 5.33967432e+02 
1.87381742e-06 3.92450147e+02 4.20758795e+02 4.52298848e+02 4.87968162e+02 5.33898555e+02 
1.51991108e-06 3.92409367e+02 4.20728880e+02 4.52262518e+02 4.87934977e+02 5.33873323e+02 
1.23284674e-06 3.92396019e+02 4.20719088e+02 4.52250627e+02 4.87924116e+02 5.33865065e+02 
1.00000000e-06 3.92392218e+02 4.20716300e+02 4.52247240e+02 4.87921022e+02 5.33862713e+02 
8.11130831e-07 3.92391390e+02 4.20715692e+02 4.52246502e+02 4.87920348e+02 5.33862200e+02 
6.57933225e-07 3.92391390e+02 4.20715692e+02 4.52246502e+02 4.87920348e+02 5.33862200e+02 
5.33669923e-07 3.92391390e+02 4.20715692e+02 4.52246502e+02 4.87920348e+02 5.33862200e+02 
4.32876128e-07 3.92391390e+02 4.20715692e+02 4.52246502e+02 4.87920348e+02 5.33862200e+02 
3.51119173e-07 3.92391390e+02 4.20715692e+02 4.52246502e+02 4.87920348e+02 5.33862200e+02 
2.84803587e-07 3.92391390e+02 4.20715692e+02 4.52246502e+02 4.87920348e+02 5.33862200e+02 
2.31012970e-07 3.92391390e+02 4.20715692e+02 4.52246502e+02 4.87920348e+02 5.33862200e+02 
1.87381742e-07 3.92391390e+02 4.20715692e+02 4.52246502e+02 4.87920348e+02 5.33862200e+02 
1.51991108e-07 3.92391390e+02 4.20715692e+02 4.52246502e+02 4.87920348e+02 5.33862200e+02 
1.23284674e-07 3.92391390e+02 4.20715692e+02 4.52246502e+02 4.87920348e+02 5.33862200e+02 
1.00000000e-07 3.92391390e+02 4.20715692e+02 4.52246502e+02 4.87920348e+02 5.33862200e+02 
