P (bar) | T: -2σ | T: -1σ  | T: median | T: +1σ | T: +2σ 
1.00000000e+02 1.20727991e+03 1.24396405e+03 1.33128012e+03 1.47043899e+03 1.57006308e+03 
8.11130831e+01 1.20727930e+03 1.24396363e+03 1.33127901e+03 1.47043720e+03 1.57006091e+03 
6.57933225e+01 1.20727718e+03 1.24396217e+03 1.33127512e+03 1.47043090e+03 1.57005328e+03 
5.33669923e+01 1.20727069e+03 1.24395769e+03 1.33126323e+03 1.47041168e+03 1.57002999e+03 
4.32876128e+01 1.20725297e+03 1.24394546e+03 1.33123078e+03 1.47035920e+03 1.56996641e+03 
3.51119173e+01 1.20720943e+03 1.24391539e+03 1.33112606e+03 1.47023021e+03 1.56981013e+03 
2.84803587e+01 1.20711270e+03 1.24384583e+03 1.33088174e+03 1.46994367e+03 1.56946298e+03 
2.31012970e+01 1.20691799e+03 1.24354757e+03 1.33038991e+03 1.46932989e+03 1.56876415e+03 
1.87381742e+01 1.20629897e+03 1.24308121e+03 1.32981103e+03 1.46813014e+03 1.56748550e+03 
1.51991108e+01 1.20549335e+03 1.24232045e+03 1.32871268e+03 1.46660141e+03 1.56541355e+03 
1.23284674e+01 1.20407968e+03 1.24163276e+03 1.32643684e+03 1.46408449e+03 1.56248856e+03 
1.00000000e+01 1.20255908e+03 1.23978616e+03 1.32464272e+03 1.46098962e+03 1.55795154e+03 
8.11130831e+00 1.20198563e+03 1.23716547e+03 1.32132318e+03 1.45585709e+03 1.55298289e+03 
6.57933225e+00 1.20081234e+03 1.23495241e+03 1.31770834e+03 1.45086735e+03 1.54480225e+03 
5.33669923e+00 1.19855050e+03 1.23132268e+03 1.31261264e+03 1.44462208e+03 1.53473311e+03 
4.32876128e+00 1.19479957e+03 1.22762653e+03 1.30738411e+03 1.43791511e+03 1.52364721e+03 
3.51119173e+00 1.19043242e+03 1.22365318e+03 1.30212711e+03 1.43010045e+03 1.51209098e+03 
2.84803587e+00 1.18590283e+03 1.22039930e+03 1.29632197e+03 1.41986657e+03 1.50573636e+03 
2.31012970e+00 1.18008790e+03 1.21689136e+03 1.29132940e+03 1.40979502e+03 1.49572802e+03 
1.87381742e+00 1.17537995e+03 1.21386142e+03 1.28674990e+03 1.39928036e+03 1.48518612e+03 
1.51991108e+00 1.17022965e+03 1.21033487e+03 1.28078894e+03 1.39037644e+03 1.47363952e+03 
1.23284674e+00 1.16538339e+03 1.20579122e+03 1.27573207e+03 1.38293280e+03 1.46370510e+03 
1.00000000e+00 1.16054406e+03 1.20101689e+03 1.27068403e+03 1.37440135e+03 1.45349692e+03 
8.11130831e-01 1.15464280e+03 1.19538714e+03 1.26589413e+03 1.36556890e+03 1.44279774e+03 
6.57933225e-01 1.14755550e+03 1.19065643e+03 1.26090129e+03 1.35719619e+03 1.43393062e+03 
5.33669923e-01 1.14077856e+03 1.18581295e+03 1.25537887e+03 1.34894942e+03 1.42519406e+03 
4.32876128e-01 1.13430800e+03 1.17921330e+03 1.24950940e+03 1.34108738e+03 1.41570115e+03 
3.51119173e-01 1.12809261e+03 1.17354159e+03 1.24347015e+03 1.33290969e+03 1.40726251e+03 
2.84803587e-01 1.12187722e+03 1.16757919e+03 1.23710836e+03 1.32374424e+03 1.39894050e+03 
2.31012970e-01 1.11566183e+03 1.16283848e+03 1.23104121e+03 1.31585987e+03 1.38773382e+03 
1.87381742e-01 1.10905789e+03 1.15824944e+03 1.22526670e+03 1.30932960e+03 1.38020608e+03 
1.51991108e-01 1.10191298e+03 1.15321488e+03 1.21964946e+03 1.30211065e+03 1.37490818e+03 
1.23284674e-01 1.09514309e+03 1.14702722e+03 1.21588174e+03 1.29565382e+03 1.36828790e+03 
1.00000000e-01 1.08913915e+03 1.14105781e+03 1.21102918e+03 1.28855323e+03 1.36075422e+03 
8.11130831e-02 1.08257029e+03 1.13516120e+03 1.20535700e+03 1.28020190e+03 1.35404864e+03 
6.57933225e-02 1.07675593e+03 1.12824815e+03 1.19880912e+03 1.27387013e+03 1.34772877e+03 
5.33669923e-02 1.07056432e+03 1.12186404e+03 1.19122365e+03 1.26686704e+03 1.34158655e+03 
4.32876128e-02 1.06375818e+03 1.11487880e+03 1.18576756e+03 1.25956844e+03 1.33438451e+03 
3.51119173e-02 1.05643247e+03 1.10748773e+03 1.17868855e+03 1.25474520e+03 1.32907461e+03 
2.84803587e-02 1.05024686e+03 1.10162382e+03 1.17237360e+03 1.24968151e+03 1.32320923e+03 
2.31012970e-02 1.04406126e+03 1.09395020e+03 1.16585334e+03 1.24377058e+03 1.31822571e+03 
1.87381742e-02 1.03672525e+03 1.08688770e+03 1.15930699e+03 1.23983048e+03 1.31293930e+03 
1.51991108e-02 1.02922837e+03 1.08018377e+03 1.15345361e+03 1.23518202e+03 1.30577979e+03 
1.23284674e-02 1.02099405e+03 1.07239256e+03 1.14752484e+03 1.22857052e+03 1.30049572e+03 
1.00000000e-02 1.01269778e+03 1.06623793e+03 1.14092641e+03 1.22321716e+03 1.29513306e+03 
8.11130831e-03 1.00502811e+03 1.05885862e+03 1.13465021e+03 1.21827123e+03 1.29045167e+03 
6.57933225e-03 9.94227937e+02 1.05007756e+03 1.12899442e+03 1.21346979e+03 1.28726705e+03 
5.33669923e-03 9.84826195e+02 1.04349887e+03 1.12279307e+03 1.20941035e+03 1.28287750e+03 
4.32876128e-03 9.75918161e+02 1.03643937e+03 1.11804754e+03 1.20362172e+03 1.28096646e+03 
3.51119173e-03 9.68323624e+02 1.02926391e+03 1.11048382e+03 1.19842069e+03 1.27593441e+03 
2.84803587e-03 9.58414386e+02 1.02172443e+03 1.10401383e+03 1.19378848e+03 1.27072680e+03 
2.31012970e-03 9.49474524e+02 1.01416729e+03 1.09834941e+03 1.18921873e+03 1.26551918e+03 
1.87381742e-03 9.42116676e+02 1.00712354e+03 1.09003802e+03 1.18434546e+03 1.26059914e+03 
1.51991108e-03 9.34758829e+02 9.99231920e+02 1.08313962e+03 1.17878556e+03 1.25643666e+03 
1.23284674e-03 9.24440626e+02 9.90866553e+02 1.07804634e+03 1.17419112e+03 1.25603898e+03 
1.00000000e-03 9.13697438e+02 9.83597006e+02 1.07322071e+03 1.16951799e+03 1.25622808e+03 
8.11130831e-04 9.04808763e+02 9.74977604e+02 1.06546045e+03 1.16444162e+03 1.25471558e+03 
6.57933225e-04 8.91429406e+02 9.65688779e+02 1.05930937e+03 1.16072641e+03 1.25163069e+03 
5.33669923e-04 8.79140483e+02 9.57261986e+02 1.05188518e+03 1.15773892e+03 1.25227938e+03 
4.32876128e-04 8.69321990e+02 9.47166425e+02 1.04457628e+03 1.15359600e+03 1.25198281e+03 
3.51119173e-04 8.59779645e+02 9.38237755e+02 1.03825897e+03 1.14951657e+03 1.25059298e+03 
2.84803587e-04 8.50237299e+02 9.28680720e+02 1.03208513e+03 1.14548607e+03 1.25037891e+03 
2.31012970e-04 8.40018132e+02 9.20413400e+02 1.02591128e+03 1.14321149e+03 1.25062657e+03 
1.87381742e-04 8.29594294e+02 9.10849945e+02 1.01899224e+03 1.14008365e+03 1.24999935e+03 
1.51991108e-04 8.19685056e+02 9.01869881e+02 1.01356358e+03 1.13635239e+03 1.25015039e+03 
1.23284674e-04 8.09862642e+02 8.94411193e+02 1.00639681e+03 1.13235502e+03 1.25078641e+03 
1.00000000e-04 7.99867022e+02 8.85565261e+02 1.00119204e+03 1.12716697e+03 1.25142241e+03 
8.11130831e-05 7.87841231e+02 8.78261526e+02 9.93461977e+02 1.12261767e+03 1.25205830e+03 
6.57933225e-05 7.75612072e+02 8.70252304e+02 9.88697984e+02 1.12003641e+03 1.25231915e+03 
5.33669923e-05 7.65486192e+02 8.60657264e+02 9.82635341e+02 1.11655229e+03 1.25204935e+03 
4.32876128e-05 7.53492110e+02 8.52512731e+02 9.75930199e+02 1.11264027e+03 1.25098643e+03 
3.51119173e-05 7.41579108e+02 8.43805545e+02 9.68647687e+02 1.10753554e+03 1.24993286e+03 
2.84803587e-05 7.29883717e+02 8.36266682e+02 9.62739163e+02 1.10430999e+03 1.24978920e+03 
2.31012970e-05 7.18716446e+02 8.27871478e+02 9.57712672e+02 1.10035156e+03 1.24980372e+03 
1.87381742e-05 7.07955865e+02 8.20227451e+02 9.52077665e+02 1.09637871e+03 1.24981740e+03 
1.51991108e-05 6.98297725e+02 8.13393000e+02 9.46798052e+02 1.09355507e+03 1.24876847e+03 
1.23284674e-05 6.89927122e+02 8.07459469e+02 9.41855101e+02 1.09057947e+03 1.24779211e+03 
1.00000000e-05 6.83077565e+02 8.02615543e+02 9.37832006e+02 1.08842371e+03 1.24699317e+03 
8.11130831e-06 6.77835947e+02 7.99426613e+02 9.35892334e+02 1.08693005e+03 1.24638178e+03 
6.57933225e-06 6.74115375e+02 7.96410896e+02 9.34515528e+02 1.08550900e+03 1.24622039e+03 
5.33669923e-06 6.71682340e+02 7.94552737e+02 9.33615178e+02 1.08438106e+03 1.24633817e+03 
4.32876128e-06 6.70224569e+02 7.93512107e+02 9.33053135e+02 1.08370526e+03 1.24640873e+03 
3.51119173e-06 6.69427842e+02 7.92957385e+02 9.32486292e+02 1.08333590e+03 1.24644730e+03 
2.84803587e-06 6.69032058e+02 7.92645737e+02 9.32181777e+02 1.08315242e+03 1.24646646e+03 
2.31012970e-06 6.68853885e+02 7.92505441e+02 9.32044691e+02 1.08306982e+03 1.24647508e+03 
1.87381742e-06 6.68781399e+02 7.92448364e+02 9.31988921e+02 1.08303621e+03 1.24647859e+03 
1.51991108e-06 6.68754845e+02 7.92427455e+02 9.31968490e+02 1.08302390e+03 1.24647988e+03 
1.23284674e-06 6.68746154e+02 7.92420611e+02 9.31961803e+02 1.08301988e+03 1.24648030e+03 
1.00000000e-06 6.68743679e+02 7.92418662e+02 9.31959899e+02 1.08301873e+03 1.24648042e+03 
8.11130831e-07 6.68743140e+02 7.92418238e+02 9.31959484e+02 1.08301848e+03 1.24648044e+03 
6.57933225e-07 6.68743140e+02 7.92418238e+02 9.31959484e+02 1.08301848e+03 1.24648044e+03 
5.33669923e-07 6.68743140e+02 7.92418238e+02 9.31959484e+02 1.08301848e+03 1.24648044e+03 
4.32876128e-07 6.68743140e+02 7.92418238e+02 9.31959484e+02 1.08301848e+03 1.24648044e+03 
3.51119173e-07 6.68743140e+02 7.92418238e+02 9.31959484e+02 1.08301848e+03 1.24648044e+03 
2.84803587e-07 6.68743140e+02 7.92418238e+02 9.31959484e+02 1.08301848e+03 1.24648044e+03 
2.31012970e-07 6.68743140e+02 7.92418238e+02 9.31959484e+02 1.08301848e+03 1.24648044e+03 
1.87381742e-07 6.68743140e+02 7.92418238e+02 9.31959484e+02 1.08301848e+03 1.24648044e+03 
1.51991108e-07 6.68743140e+02 7.92418238e+02 9.31959484e+02 1.08301848e+03 1.24648044e+03 
1.23284674e-07 6.68743140e+02 7.92418238e+02 9.31959484e+02 1.08301848e+03 1.24648044e+03 
1.00000000e-07 6.68743140e+02 7.92418238e+02 9.31959484e+02 1.08301848e+03 1.24648044e+03 
