P (bar) | T: -2σ | T: -1σ  | T: median | T: +1σ | T: +2σ 
1.00000000e+02 2.92709825e+03 3.39062673e+03 3.72331269e+03 3.92817842e+03 3.99243912e+03 
8.11130831e+01 2.92709083e+03 3.39061797e+03 3.72330293e+03 3.92816813e+03 3.99242874e+03 
6.57933225e+01 2.92706479e+03 3.39058724e+03 3.72326866e+03 3.92813199e+03 3.99239229e+03 
5.33669923e+01 2.92698525e+03 3.39049335e+03 3.72316395e+03 3.92802156e+03 3.99228094e+03 
4.32876128e+01 2.92676810e+03 3.39023704e+03 3.72287812e+03 3.92772013e+03 3.99197696e+03 
3.51119173e+01 2.92623434e+03 3.38960703e+03 3.72217553e+03 3.92697400e+03 3.99122978e+03 
2.84803587e+01 2.92504867e+03 3.38820755e+03 3.72061484e+03 3.92530065e+03 3.98957004e+03 
2.31012970e+01 2.92266188e+03 3.38539036e+03 3.71747312e+03 3.92193213e+03 3.98622891e+03 
1.87381742e+01 2.91829477e+03 3.38023574e+03 3.71172472e+03 3.91576877e+03 3.97992051e+03 
1.51991108e+01 2.91100601e+03 3.37163262e+03 3.70213057e+03 3.90547955e+03 3.96934561e+03 
1.23284674e+01 2.89986012e+03 3.35847682e+03 3.68745930e+03 3.88961453e+03 3.95348340e+03 
1.00000000e+01 2.88402918e+03 3.33994266e+03 3.66679012e+03 3.86778601e+03 3.93113640e+03 
8.11130831e+00 2.86333788e+03 3.31554134e+03 3.63991089e+03 3.83928422e+03 3.90126574e+03 
6.57933225e+00 2.83805177e+03 3.28563590e+03 3.60742032e+03 3.80424229e+03 3.86440403e+03 
5.33669923e+00 2.80887624e+03 3.25144929e+03 3.56906703e+03 3.76419811e+03 3.82325207e+03 
4.32876128e+00 2.77675460e+03 3.21341883e+03 3.52684088e+03 3.71920040e+03 3.77730381e+03 
3.51119173e+00 2.74263607e+03 3.17302380e+03 3.48276149e+03 3.67155342e+03 3.72903641e+03 
2.84803587e+00 2.70730636e+03 3.13122064e+03 3.43744688e+03 3.62206423e+03 3.67876966e+03 
2.31012970e+00 2.67131929e+03 3.08876795e+03 3.39128913e+03 3.57134092e+03 3.62817055e+03 
1.87381742e+00 2.63501296e+03 3.04593864e+03 3.34348079e+03 3.51996537e+03 3.57656449e+03 
1.51991108e+00 2.59856787e+03 3.00340849e+03 3.29520759e+03 3.46877016e+03 3.52416223e+03 
1.23284674e+00 2.56206882e+03 2.96070310e+03 3.24686292e+03 3.41775048e+03 3.47231652e+03 
1.00000000e+00 2.52555100e+03 2.91738366e+03 3.19851797e+03 3.36648574e+03 3.42221499e+03 
8.11130831e-01 2.48902733e+03 2.87355359e+03 3.15095131e+03 3.31563291e+03 3.37035522e+03 
6.57933225e-01 2.45250203e+03 2.82999540e+03 3.10324206e+03 3.26537326e+03 3.31847739e+03 
5.33669923e-01 2.41597672e+03 2.78722689e+03 3.05564998e+03 3.21503934e+03 3.26641663e+03 
4.32876128e-01 2.37945142e+03 2.74425606e+03 3.00687437e+03 3.16466636e+03 3.21630979e+03 
3.51119173e-01 2.34292612e+03 2.70158172e+03 2.95943925e+03 3.11390194e+03 3.16553513e+03 
2.84803587e-01 2.30640082e+03 2.65955185e+03 2.91092632e+03 3.06290550e+03 3.11356014e+03 
2.31012970e-01 2.26987552e+03 2.61748684e+03 2.86281768e+03 3.01167788e+03 3.06167769e+03 
1.87381742e-01 2.23335022e+03 2.57467500e+03 2.81448736e+03 2.96079355e+03 3.01104269e+03 
1.51991108e-01 2.19682492e+03 2.53223746e+03 2.76577933e+03 2.90972766e+03 2.95995647e+03 
1.23284674e-01 2.16029962e+03 2.48906853e+03 2.71741458e+03 2.85983556e+03 2.90858177e+03 
1.00000000e-01 2.12377431e+03 2.44625875e+03 2.67035614e+03 2.80832178e+03 2.85757304e+03 
8.11130831e-02 2.08661391e+03 2.40432368e+03 2.62255883e+03 2.75736289e+03 2.80656430e+03 
6.57933225e-02 2.04938518e+03 2.36195802e+03 2.57560044e+03 2.70687654e+03 2.75506721e+03 
5.33669923e-02 2.01215644e+03 2.31847857e+03 2.52839976e+03 2.65674798e+03 2.70454683e+03 
4.32876128e-02 1.97492771e+03 2.27588956e+03 2.48175398e+03 2.60656827e+03 2.65312822e+03 
3.51119173e-02 1.93769897e+03 2.23317329e+03 2.43296681e+03 2.55568400e+03 2.60146219e+03 
2.84803587e-02 1.90112259e+03 2.19054353e+03 2.38625781e+03 2.50567459e+03 2.55053572e+03 
2.31012970e-02 1.86512528e+03 2.14791378e+03 2.33893913e+03 2.45495764e+03 2.49983318e+03 
1.87381742e-02 1.83010949e+03 2.10503766e+03 2.29225018e+03 2.40351284e+03 2.44913064e+03 
1.51991108e-02 1.79523902e+03 2.06085477e+03 2.24481785e+03 2.35236320e+03 2.39842810e+03 
1.23284674e-02 1.76060329e+03 2.01672571e+03 2.19730283e+03 2.30112853e+03 2.34748567e+03 
1.00000000e-02 1.72596757e+03 1.97370212e+03 2.14980688e+03 2.24971635e+03 2.29647694e+03 
8.11130831e-03 1.69133184e+03 1.93099889e+03 2.10255742e+03 2.19912311e+03 2.24591761e+03 
6.57933225e-03 1.65669611e+03 1.88859710e+03 2.05472057e+03 2.14873173e+03 2.19561795e+03 
5.33669923e-03 1.62206038e+03 1.84684909e+03 2.00687356e+03 2.09863722e+03 2.14491542e+03 
4.32876128e-03 1.58688265e+03 1.80467272e+03 1.96041986e+03 2.04735367e+03 2.09442448e+03 
3.51119173e-03 1.55066056e+03 1.76084458e+03 1.91342207e+03 1.99661792e+03 2.04411645e+03 
2.84803587e-03 1.51443847e+03 1.71701643e+03 1.86545829e+03 1.94588389e+03 1.99309942e+03 
2.31012970e-03 1.47821639e+03 1.67440643e+03 1.81737434e+03 1.89513297e+03 1.94245880e+03 
1.87381742e-03 1.44229606e+03 1.63096315e+03 1.77066397e+03 1.84580414e+03 1.89241443e+03 
1.51991108e-03 1.40869668e+03 1.58782364e+03 1.72307190e+03 1.79562599e+03 1.84276187e+03 
1.23284674e-03 1.37239850e+03 1.54554212e+03 1.67440729e+03 1.74521585e+03 1.79180793e+03 
1.00000000e-03 1.33612636e+03 1.50249754e+03 1.62725268e+03 1.69515328e+03 1.74053600e+03 
8.11130831e-04 1.30160833e+03 1.45865226e+03 1.57936588e+03 1.64446105e+03 1.69133345e+03 
6.57933225e-04 1.26747181e+03 1.41801572e+03 1.53173119e+03 1.59377085e+03 1.64006004e+03 
5.33669923e-04 1.23257228e+03 1.37537863e+03 1.48428657e+03 1.54334567e+03 1.59053280e+03 
4.32876128e-04 1.19805425e+03 1.33332577e+03 1.43667652e+03 1.49332681e+03 1.54235118e+03 
3.51119173e-04 1.16083619e+03 1.29124614e+03 1.38830874e+03 1.44345785e+03 1.49199265e+03 
2.84803587e-04 1.12634084e+03 1.24799360e+03 1.34123680e+03 1.39457985e+03 1.44126052e+03 
2.31012970e-04 1.08871731e+03 1.20493440e+03 1.29284367e+03 1.34499855e+03 1.39072264e+03 
1.87381742e-04 1.04879523e+03 1.16070394e+03 1.24409495e+03 1.29564605e+03 1.34072264e+03 
1.51991108e-04 1.00956678e+03 1.11699079e+03 1.19633186e+03 1.24639992e+03 1.29213569e+03 
1.23284674e-04 9.75645768e+02 1.07340633e+03 1.14788217e+03 1.19800980e+03 1.24198771e+03 
1.00000000e-04 9.43997397e+02 1.02908641e+03 1.09887802e+03 1.14870217e+03 1.19275171e+03 
8.11130831e-05 9.01194917e+02 9.84365374e+02 1.05016657e+03 1.09961351e+03 1.14326507e+03 
6.57933225e-05 8.65862441e+02 9.41321283e+02 1.00130365e+03 1.05104615e+03 1.09393309e+03 
5.33669923e-05 8.30204827e+02 8.95984625e+02 9.52923267e+02 1.00308819e+03 1.04536230e+03 
4.32876128e-05 7.91198675e+02 8.51695840e+02 9.04738411e+02 9.55818944e+02 9.97072271e+02 
3.51119173e-05 7.52049020e+02 8.07472655e+02 8.57598802e+02 9.08148094e+02 9.48431919e+02 
2.84803587e-05 7.13068818e+02 7.65404970e+02 8.11929398e+02 8.63200056e+02 9.02109677e+02 
2.31012970e-05 6.71988773e+02 7.23332666e+02 7.67154665e+02 8.19328719e+02 8.57050195e+02 
1.87381742e-05 6.32051465e+02 6.82649488e+02 7.27319434e+02 7.78464470e+02 8.13622106e+02 
1.51991108e-05 5.99875641e+02 6.46414321e+02 6.90336270e+02 7.40808495e+02 7.76704473e+02 
1.23284674e-05 5.69453947e+02 6.15043905e+02 6.57847054e+02 7.08402848e+02 7.44748777e+02 
1.00000000e-05 5.42261933e+02 5.89277640e+02 6.32007718e+02 6.82106190e+02 7.18361030e+02 
8.11130831e-06 5.23351237e+02 5.68835312e+02 6.11522572e+02 6.61193824e+02 6.98388329e+02 
6.57933225e-06 5.08466990e+02 5.53878748e+02 5.97690095e+02 6.46461905e+02 6.84795223e+02 
5.33669923e-06 4.98932545e+02 5.43933590e+02 5.88095949e+02 6.36802483e+02 6.75569860e+02 
4.32876128e-06 4.93740928e+02 5.38065778e+02 5.82347546e+02 6.31554356e+02 6.70263184e+02 
3.51119173e-06 4.90455866e+02 5.35068693e+02 5.79237980e+02 6.28457937e+02 6.67572595e+02 
2.84803587e-06 4.88823972e+02 5.33469816e+02 5.77812617e+02 6.27161740e+02 6.66105565e+02 
2.31012970e-06 4.88089329e+02 5.32763705e+02 5.77173906e+02 6.26535290e+02 6.65445142e+02 
1.87381742e-06 4.87790458e+02 5.32472606e+02 5.76914062e+02 6.26280434e+02 6.65176464e+02 
1.51991108e-06 4.87680971e+02 5.32365967e+02 5.76818872e+02 6.26187071e+02 6.65078038e+02 
1.23284674e-06 4.87645135e+02 5.32331063e+02 5.76787716e+02 6.26153865e+02 6.65045823e+02 
1.00000000e-06 4.87634929e+02 5.32321123e+02 5.76778843e+02 6.26144169e+02 6.65036648e+02 
8.11130831e-07 4.87632705e+02 5.32318957e+02 5.76776909e+02 6.26142056e+02 6.65034649e+02 
6.57933225e-07 4.87632705e+02 5.32318957e+02 5.76776909e+02 6.26142056e+02 6.65034649e+02 
5.33669923e-07 4.87632705e+02 5.32318957e+02 5.76776909e+02 6.26142056e+02 6.65034649e+02 
4.32876128e-07 4.87632705e+02 5.32318957e+02 5.76776909e+02 6.26142056e+02 6.65034649e+02 
3.51119173e-07 4.87632705e+02 5.32318957e+02 5.76776909e+02 6.26142056e+02 6.65034649e+02 
2.84803587e-07 4.87632705e+02 5.32318957e+02 5.76776909e+02 6.26142056e+02 6.65034649e+02 
2.31012970e-07 4.87632705e+02 5.32318957e+02 5.76776909e+02 6.26142056e+02 6.65034649e+02 
1.87381742e-07 4.87632705e+02 5.32318957e+02 5.76776909e+02 6.26142056e+02 6.65034649e+02 
1.51991108e-07 4.87632705e+02 5.32318957e+02 5.76776909e+02 6.26142056e+02 6.65034649e+02 
1.23284674e-07 4.87632705e+02 5.32318957e+02 5.76776909e+02 6.26142056e+02 6.65034649e+02 
1.00000000e-07 4.87632705e+02 5.32318957e+02 5.76776909e+02 6.26142056e+02 6.65034649e+02 
