P (bar) | T: -2σ | T: -1σ  | T: median | T: +1σ | T: +2σ 
1.00000000e+02 1.52815662e+03 1.66203266e+03 2.75823102e+03 3.32365423e+03 3.77785158e+03 
8.11130831e+01 1.52815542e+03 1.66202891e+03 2.75822395e+03 3.32364494e+03 3.77784274e+03 
6.57933225e+01 1.52815119e+03 1.66201574e+03 2.75819913e+03 3.32361234e+03 3.77781171e+03 
5.33669923e+01 1.52813828e+03 1.66197551e+03 2.75812331e+03 3.32351274e+03 3.77771692e+03 
4.32876128e+01 1.52810303e+03 1.66186569e+03 2.75791633e+03 3.32324085e+03 3.77745814e+03 
3.51119173e+01 1.52801639e+03 1.66159576e+03 2.75740756e+03 3.32257253e+03 3.77676565e+03 
2.84803587e+01 1.52782393e+03 1.66104474e+03 2.75627742e+03 3.32108795e+03 3.77505161e+03 
2.31012970e+01 1.52738804e+03 1.66002873e+03 2.75400240e+03 3.31809945e+03 3.77160119e+03 
1.87381742e+01 1.52646600e+03 1.65847196e+03 2.74983980e+03 3.31263139e+03 3.76528797e+03 
1.51991108e+01 1.52468738e+03 1.65600407e+03 2.74289237e+03 3.30350515e+03 3.75475113e+03 
1.23284674e+01 1.52131194e+03 1.65139561e+03 2.73226844e+03 3.28954939e+03 3.73863830e+03 
1.00000000e+01 1.51815189e+03 1.64757039e+03 2.71730122e+03 3.27031663e+03 3.71593822e+03 
8.11130831e+00 1.51297651e+03 1.64193818e+03 2.69774260e+03 3.24524363e+03 3.68627458e+03 
6.57933225e+00 1.50571850e+03 1.63578727e+03 2.67380184e+03 3.21441014e+03 3.65002369e+03 
5.33669923e+00 1.49872735e+03 1.62465718e+03 2.64586384e+03 3.17790125e+03 3.60819681e+03 
4.32876128e+00 1.49031015e+03 1.61088205e+03 2.61510470e+03 3.13767735e+03 3.56214631e+03 
3.51119173e+00 1.48263471e+03 1.59997433e+03 2.58243336e+03 3.09619559e+03 3.51323301e+03 
2.84803587e+00 1.47211183e+03 1.58954547e+03 2.54860223e+03 3.05412049e+03 3.46258332e+03 
2.31012970e+00 1.46268173e+03 1.57576351e+03 2.51414161e+03 3.01104557e+03 3.41099122e+03 
1.87381742e+00 1.45209000e+03 1.56526074e+03 2.48012596e+03 2.96808676e+03 3.35894142e+03 
1.51991108e+00 1.44210990e+03 1.55372012e+03 2.44447606e+03 2.92321775e+03 3.30669270e+03 
1.23284674e+00 1.43363404e+03 1.54061072e+03 2.40914755e+03 2.87913012e+03 3.25436662e+03 
1.00000000e+00 1.42418109e+03 1.52965393e+03 2.37558806e+03 2.83501982e+03 3.20201362e+03 
8.11130831e-01 1.41147064e+03 1.51757477e+03 2.34253747e+03 2.79083172e+03 3.14965223e+03 
6.57933225e-01 1.39165899e+03 1.50737743e+03 2.30823442e+03 2.74669926e+03 3.09728851e+03 
5.33669923e-01 1.37553073e+03 1.49516327e+03 2.27260565e+03 2.70191942e+03 3.04492479e+03 
4.32876128e-01 1.36157448e+03 1.48558867e+03 2.23873082e+03 2.65719290e+03 2.99256107e+03 
3.51119173e-01 1.34793554e+03 1.47435732e+03 2.20448626e+03 2.61234928e+03 2.94019735e+03 
2.84803587e-01 1.33579945e+03 1.46500207e+03 2.17076374e+03 2.56816337e+03 2.88783363e+03 
2.31012970e-01 1.31742580e+03 1.45586697e+03 2.13514385e+03 2.52337457e+03 2.83546991e+03 
1.87381742e-01 1.30343161e+03 1.44599365e+03 2.09888278e+03 2.47829305e+03 2.78310619e+03 
1.51991108e-01 1.28656659e+03 1.43083437e+03 2.06524253e+03 2.43321154e+03 2.73074247e+03 
1.23284674e-01 1.26870276e+03 1.41733435e+03 2.02915227e+03 2.38813003e+03 2.67837875e+03 
1.00000000e-01 1.24732723e+03 1.40654661e+03 1.99405484e+03 2.34522456e+03 2.62601503e+03 
8.11130831e-02 1.22822494e+03 1.39350910e+03 1.95908806e+03 2.30556423e+03 2.57365131e+03 
6.57933225e-02 1.21398545e+03 1.38508848e+03 1.92268136e+03 2.26298525e+03 2.52128759e+03 
5.33669923e-02 1.19429214e+03 1.37567174e+03 1.89133128e+03 2.21823727e+03 2.46892387e+03 
4.32876128e-02 1.17434544e+03 1.36669325e+03 1.85724360e+03 2.17460912e+03 2.41665548e+03 
3.51119173e-02 1.15386204e+03 1.35405121e+03 1.82368034e+03 2.12982588e+03 2.36459964e+03 
2.84803587e-02 1.13367360e+03 1.34369959e+03 1.79143178e+03 2.08718212e+03 2.31254381e+03 
2.31012970e-02 1.11513583e+03 1.33268281e+03 1.75476134e+03 2.04189074e+03 2.26048797e+03 
1.87381742e-02 1.09456598e+03 1.32070415e+03 1.71851063e+03 1.99626748e+03 2.20843214e+03 
1.51991108e-02 1.07305824e+03 1.30804014e+03 1.68439763e+03 1.95143149e+03 2.16051949e+03 
1.23284674e-02 1.05155050e+03 1.29592513e+03 1.64867729e+03 1.90938709e+03 2.11230795e+03 
1.00000000e-02 1.03058746e+03 1.28635580e+03 1.61289211e+03 1.86505373e+03 2.06379507e+03 
8.11130831e-03 1.00997023e+03 1.27313176e+03 1.57673830e+03 1.82074672e+03 2.01792114e+03 
6.57933225e-03 9.89353006e+02 1.25975327e+03 1.54529775e+03 1.77701066e+03 1.96454427e+03 
5.33669923e-03 9.68735779e+02 1.24824959e+03 1.51367096e+03 1.73219888e+03 1.91566991e+03 
4.32876128e-03 9.47841625e+02 1.23528014e+03 1.48730524e+03 1.68701049e+03 1.86686980e+03 
3.51119173e-03 9.25683889e+02 1.22411588e+03 1.45515091e+03 1.64366896e+03 1.82016711e+03 
2.84803587e-03 9.03526153e+02 1.21354281e+03 1.42451642e+03 1.60255300e+03 1.77224273e+03 
2.31012970e-03 8.81368417e+02 1.20082425e+03 1.39272739e+03 1.56060315e+03 1.72559608e+03 
1.87381742e-03 8.59210681e+02 1.18936352e+03 1.36060951e+03 1.51687884e+03 1.67665397e+03 
1.51991108e-03 8.37052945e+02 1.17534208e+03 1.32593759e+03 1.47361214e+03 1.62941007e+03 
1.23284674e-03 8.16136907e+02 1.16090076e+03 1.29640942e+03 1.43100971e+03 1.58499611e+03 
1.00000000e-03 7.95532505e+02 1.14432157e+03 1.26495596e+03 1.39486311e+03 1.54704293e+03 
8.11130831e-04 7.75449361e+02 1.12215229e+03 1.23369982e+03 1.35575891e+03 1.50632818e+03 
6.57933225e-04 7.56243214e+02 1.10085887e+03 1.20512739e+03 1.31873392e+03 1.48396650e+03 
5.33669923e-04 7.34492149e+02 1.07380028e+03 1.17082094e+03 1.27935444e+03 1.46566930e+03 
4.32876128e-04 7.13812740e+02 1.04662690e+03 1.13820822e+03 1.25127210e+03 1.44737210e+03 
3.51119173e-04 6.92510496e+02 1.01344467e+03 1.10880862e+03 1.21983088e+03 1.42907491e+03 
2.84803587e-04 6.71906094e+02 9.79404635e+02 1.07631648e+03 1.19777033e+03 1.40307278e+03 
2.31012970e-04 6.51301693e+02 9.41993218e+02 1.04000375e+03 1.17669587e+03 1.37533812e+03 
1.87381742e-04 6.30697291e+02 9.07156774e+02 1.00407279e+03 1.16579479e+03 1.34633648e+03 
1.51991108e-04 6.10092889e+02 8.69631059e+02 9.62221743e+02 1.15376583e+03 1.32553412e+03 
1.23284674e-04 5.89488487e+02 8.31826818e+02 9.22856195e+02 1.14281937e+03 1.30651003e+03 
1.00000000e-04 5.68885005e+02 7.93504610e+02 8.82160728e+02 1.13233946e+03 1.28901721e+03 
8.11130831e-05 5.48284821e+02 7.53499264e+02 8.38912104e+02 1.12002642e+03 1.27488022e+03 
6.57933225e-05 5.27695230e+02 7.14038063e+02 7.96840048e+02 1.10888283e+03 1.26177980e+03 
5.33669923e-05 5.06675282e+02 6.72128914e+02 7.56158297e+02 1.09664166e+03 1.24727562e+03 
4.32876128e-05 4.84047728e+02 6.30345367e+02 7.15353287e+02 1.08155433e+03 1.23440284e+03 
3.51119173e-05 4.63492084e+02 5.89512848e+02 6.77209036e+02 1.06767627e+03 1.21905838e+03 
2.84803587e-05 4.45180918e+02 5.48361934e+02 6.37367278e+02 1.05541973e+03 1.20741053e+03 
2.31012970e-05 4.26178335e+02 5.08406450e+02 6.00429548e+02 1.04474874e+03 1.19345316e+03 
1.87381742e-05 4.06416424e+02 4.69679586e+02 5.64901926e+02 1.03466900e+03 1.18286486e+03 
1.51991108e-05 3.90021673e+02 4.34016360e+02 5.32899453e+02 1.02370668e+03 1.17298602e+03 
1.23284674e-05 3.72470248e+02 4.02966709e+02 5.05511515e+02 1.01473255e+03 1.16427300e+03 
1.00000000e-05 3.52145071e+02 3.77845758e+02 4.84669565e+02 1.00838953e+03 1.15714324e+03 
8.11130831e-06 3.36214595e+02 3.59357590e+02 4.67296277e+02 1.00322112e+03 1.15168720e+03 
6.57933225e-06 3.23443199e+02 3.46933597e+02 4.54868474e+02 9.99697488e+02 1.14781443e+03 
5.33669923e-06 3.14775510e+02 3.38406756e+02 4.47606691e+02 9.96386363e+02 1.14528186e+03 
4.32876128e-06 3.09069939e+02 3.33109694e+02 4.43379898e+02 9.94402478e+02 1.14376446e+03 
3.51119173e-06 3.06135058e+02 3.30779952e+02 4.41069795e+02 9.93318210e+02 1.14293514e+03 
2.84803587e-06 3.04664613e+02 3.29438482e+02 4.39922223e+02 9.92779586e+02 1.14258161e+03 
2.31012970e-06 3.04006413e+02 3.28863667e+02 4.39405612e+02 9.92537110e+02 1.14247803e+03 
1.87381742e-06 3.03738640e+02 3.28629818e+02 4.39195441e+02 9.92438465e+02 1.14243590e+03 
1.51991108e-06 3.03640546e+02 3.28544151e+02 4.39118448e+02 9.92402327e+02 1.14242046e+03 
1.23284674e-06 3.03608439e+02 3.28516111e+02 4.39093248e+02 9.92390499e+02 1.14241541e+03 
1.00000000e-06 3.03599295e+02 3.28508126e+02 4.39086071e+02 9.92387131e+02 1.14241397e+03 
8.11130831e-07 3.03597303e+02 3.28506386e+02 4.39084507e+02 9.92386397e+02 1.14241366e+03 
6.57933225e-07 3.03597303e+02 3.28506386e+02 4.39084507e+02 9.92386397e+02 1.14241366e+03 
5.33669923e-07 3.03597303e+02 3.28506386e+02 4.39084507e+02 9.92386397e+02 1.14241366e+03 
4.32876128e-07 3.03597303e+02 3.28506386e+02 4.39084507e+02 9.92386397e+02 1.14241366e+03 
3.51119173e-07 3.03597303e+02 3.28506386e+02 4.39084507e+02 9.92386397e+02 1.14241366e+03 
2.84803587e-07 3.03597303e+02 3.28506386e+02 4.39084507e+02 9.92386397e+02 1.14241366e+03 
2.31012970e-07 3.03597303e+02 3.28506386e+02 4.39084507e+02 9.92386397e+02 1.14241366e+03 
1.87381742e-07 3.03597303e+02 3.28506386e+02 4.39084507e+02 9.92386397e+02 1.14241366e+03 
1.51991108e-07 3.03597303e+02 3.28506386e+02 4.39084507e+02 9.92386397e+02 1.14241366e+03 
1.23284674e-07 3.03597303e+02 3.28506386e+02 4.39084507e+02 9.92386397e+02 1.14241366e+03 
1.00000000e-07 3.03597303e+02 3.28506386e+02 4.39084507e+02 9.92386397e+02 1.14241366e+03 
