P (bar) | T: -2σ | T: -1σ  | T: median | T: +1σ | T: +2σ 
1.00000000e+02 5.36333617e+02 8.44269472e+02 1.17024375e+03 1.43574253e+03 1.75213699e+03 
8.11130831e+01 5.36334493e+02 8.44269359e+02 1.17024243e+03 1.43574035e+03 1.75213371e+03 
6.57933225e+01 5.36337569e+02 8.44268965e+02 1.17023779e+03 1.43573273e+03 1.75212222e+03 
5.33669923e+01 5.36346966e+02 8.44267760e+02 1.17022363e+03 1.43570943e+03 1.75208711e+03 
4.32876128e+01 5.36372617e+02 8.44264472e+02 1.17018498e+03 1.43564582e+03 1.75199126e+03 
3.51119173e+01 5.36435668e+02 8.44256390e+02 1.17008998e+03 1.43548946e+03 1.75175565e+03 
2.84803587e+01 5.36575726e+02 8.44238436e+02 1.16987893e+03 1.43514214e+03 1.75123229e+03 
2.31012970e+01 5.36857669e+02 8.44202294e+02 1.16942970e+03 1.43444297e+03 1.75017874e+03 
1.87381742e+01 5.37373540e+02 8.44136166e+02 1.16860069e+03 1.43316370e+03 1.74825106e+03 
1.51991108e+01 5.38234533e+02 8.44025796e+02 1.16721706e+03 1.43101964e+03 1.74503374e+03 
1.23284674e+01 5.39551156e+02 8.43857021e+02 1.16510122e+03 1.42761812e+03 1.74011385e+03 
1.00000000e+01 5.41406040e+02 8.43619247e+02 1.16212039e+03 1.42282434e+03 1.73318261e+03 
8.11130831e+00 5.43829936e+02 8.43018057e+02 1.15822514e+03 1.41640901e+03 1.72412511e+03 
6.57933225e+00 5.46792094e+02 8.42592929e+02 1.15346490e+03 1.40858815e+03 1.71305626e+03 
5.33669923e+00 5.50209881e+02 8.41773203e+02 1.14797245e+03 1.40045024e+03 1.70028484e+03 
4.32876128e+00 5.53972790e+02 8.41113344e+02 1.14231659e+03 1.39100077e+03 1.68622378e+03 
3.51119173e+00 5.57969628e+02 8.39750172e+02 1.13610086e+03 1.38047825e+03 1.67128860e+03 
2.84803587e+00 5.62108349e+02 8.38769383e+02 1.13003968e+03 1.36944047e+03 1.65582322e+03 
2.31012970e+00 5.66324078e+02 8.38249337e+02 1.12296716e+03 1.35858492e+03 1.64056527e+03 
1.87381742e+00 5.70577208e+02 8.37750525e+02 1.11661598e+03 1.34803505e+03 1.62438900e+03 
1.51991108e+00 5.74846591e+02 8.37249807e+02 1.11033796e+03 1.33790321e+03 1.60822358e+03 
1.23284674e+00 5.79122296e+02 8.35775774e+02 1.10385566e+03 1.32776714e+03 1.59224634e+03 
1.00000000e+00 5.83400200e+02 8.34483275e+02 1.09711520e+03 1.31715074e+03 1.57498179e+03 
8.11130831e-01 5.87678790e+02 8.32794073e+02 1.09073298e+03 1.30646355e+03 1.55826023e+03 
6.57933225e-01 5.91675378e+02 8.30939798e+02 1.08441174e+03 1.29572105e+03 1.54295315e+03 
5.33669923e-01 5.95006885e+02 8.29085523e+02 1.07829934e+03 1.28505168e+03 1.52764606e+03 
4.32876128e-01 5.98338393e+02 8.27456386e+02 1.07232178e+03 1.27532558e+03 1.51230663e+03 
3.51119173e-01 6.01669901e+02 8.26821292e+02 1.06614367e+03 1.26533677e+03 1.49631790e+03 
2.84803587e-01 6.05001408e+02 8.26650932e+02 1.05953554e+03 1.25444391e+03 1.48032916e+03 
2.31012970e-01 6.08332916e+02 8.26680387e+02 1.05260141e+03 1.24350850e+03 1.46434042e+03 
1.87381742e-01 6.11664424e+02 8.26140247e+02 1.04528859e+03 1.23271776e+03 1.44835168e+03 
1.51991108e-01 6.14995931e+02 8.25614879e+02 1.03829866e+03 1.22161866e+03 1.43236295e+03 
1.23284674e-01 6.18915335e+02 8.24569860e+02 1.03131774e+03 1.20989238e+03 1.41637421e+03 
1.00000000e-01 6.24019001e+02 8.23179608e+02 1.02564504e+03 1.19840433e+03 1.40038547e+03 
8.11130831e-02 6.28610511e+02 8.21789355e+02 1.01905585e+03 1.18733743e+03 1.38439673e+03 
6.57933225e-02 6.31842710e+02 8.20551840e+02 1.01217130e+03 1.17568597e+03 1.36958671e+03 
5.33669923e-02 6.35819389e+02 8.19898878e+02 1.00576700e+03 1.16505910e+03 1.35541649e+03 
4.32876128e-02 6.40497260e+02 8.19623752e+02 9.99939175e+02 1.15497935e+03 1.34017006e+03 
3.51119173e-02 6.45175131e+02 8.18278842e+02 9.93473836e+02 1.14434567e+03 1.32381905e+03 
2.84803587e-02 6.49853003e+02 8.17018203e+02 9.87385638e+02 1.13330838e+03 1.30746804e+03 
2.31012970e-02 6.53662154e+02 8.16274409e+02 9.81518044e+02 1.12258274e+03 1.29163756e+03 
1.87381742e-02 6.56792063e+02 8.15587109e+02 9.75293082e+02 1.11141744e+03 1.27802205e+03 
1.51991108e-02 6.59921971e+02 8.14732720e+02 9.68703768e+02 1.10008553e+03 1.26452082e+03 
1.23284674e-02 6.63845700e+02 8.13346544e+02 9.61694658e+02 1.08989705e+03 1.25101960e+03 
1.00000000e-02 6.69435620e+02 8.12279706e+02 9.55536066e+02 1.07745961e+03 1.23590174e+03 
8.11130831e-03 6.75025539e+02 8.11305884e+02 9.49127557e+02 1.06760196e+03 1.22142037e+03 
6.57933225e-03 6.80615459e+02 8.10189875e+02 9.43396537e+02 1.05693783e+03 1.20573934e+03 
5.33669923e-03 6.86205379e+02 8.10289051e+02 9.35971743e+02 1.04635811e+03 1.18841757e+03 
4.32876128e-03 6.91795299e+02 8.08672170e+02 9.29491801e+02 1.03663408e+03 1.17109581e+03 
3.51119173e-03 6.97385218e+02 8.06358628e+02 9.22746727e+02 1.02672749e+03 1.15377404e+03 
2.84803587e-03 7.02975138e+02 8.03221961e+02 9.17068795e+02 1.01580887e+03 1.13645228e+03 
2.31012970e-03 7.05987458e+02 8.02851141e+02 9.10393165e+02 1.00601029e+03 1.11913051e+03 
1.87381742e-03 7.07042305e+02 8.01051309e+02 9.04082699e+02 9.95933522e+02 1.10386437e+03 
1.51991108e-03 7.07497881e+02 7.99797448e+02 8.97050341e+02 9.84709850e+02 1.08871143e+03 
1.23284674e-03 7.14668113e+02 7.98884600e+02 8.90543814e+02 9.72545949e+02 1.07144304e+03 
1.00000000e-03 7.17177420e+02 7.97123976e+02 8.83459386e+02 9.62471072e+02 1.05417466e+03 
8.11130831e-04 7.19110722e+02 7.95191929e+02 8.76952165e+02 9.52093299e+02 1.03837693e+03 
6.57933225e-04 7.20216433e+02 7.93424694e+02 8.70573267e+02 9.41437745e+02 1.02358817e+03 
5.33669923e-04 7.21164888e+02 7.92429672e+02 8.63514125e+02 9.31993548e+02 1.00879942e+03 
4.32876128e-04 7.23011891e+02 7.90596577e+02 8.56578760e+02 9.21649016e+02 9.94303320e+02 
3.51119173e-04 7.25421738e+02 7.90329823e+02 8.49948969e+02 9.11811950e+02 9.79709460e+02 
2.84803587e-04 7.28406228e+02 7.87804859e+02 8.43267052e+02 9.01576006e+02 9.68393374e+02 
2.31012970e-04 7.30545217e+02 7.85348459e+02 8.36650565e+02 8.90757925e+02 9.57710281e+02 
1.87381742e-04 7.29939454e+02 7.82823484e+02 8.29716290e+02 8.81529055e+02 9.43797165e+02 
1.51991108e-04 7.31734504e+02 7.79806253e+02 8.23200003e+02 8.73328483e+02 9.33218583e+02 
1.23284674e-04 7.34820199e+02 7.76067337e+02 8.17558104e+02 8.64435867e+02 9.21493526e+02 
1.00000000e-04 7.35801863e+02 7.72870370e+02 8.10353676e+02 8.55376024e+02 9.08447910e+02 
8.11130831e-05 7.35462315e+02 7.70187176e+02 8.04369466e+02 8.46621141e+02 8.99627578e+02 
6.57933225e-05 7.34737119e+02 7.65746469e+02 7.98403235e+02 8.38450689e+02 8.88768357e+02 
5.33669923e-05 7.30589917e+02 7.61021863e+02 7.92136160e+02 8.31867517e+02 8.76341536e+02 
4.32876128e-05 7.25137302e+02 7.54485081e+02 7.86174639e+02 8.24896557e+02 8.67033914e+02 
3.51119173e-05 7.20130181e+02 7.48467822e+02 7.80430169e+02 8.18468682e+02 8.60078965e+02 
2.84803587e-05 7.11409608e+02 7.42259811e+02 7.74009213e+02 8.13980556e+02 8.54125575e+02 
2.31012970e-05 7.02665803e+02 7.34818358e+02 7.68580757e+02 8.09026520e+02 8.48110266e+02 
1.87381742e-05 6.92121106e+02 7.27590499e+02 7.63404248e+02 8.04922145e+02 8.46828163e+02 
1.51991108e-05 6.82785190e+02 7.20224911e+02 7.58097385e+02 8.02426406e+02 8.46273552e+02 
1.23284674e-05 6.76659594e+02 7.13748210e+02 7.53597130e+02 7.99680661e+02 8.44636363e+02 
1.00000000e-05 6.68888309e+02 7.09711796e+02 7.48964833e+02 7.98404064e+02 8.44651787e+02 
8.11130831e-06 6.62964517e+02 7.05452681e+02 7.45815190e+02 7.96283450e+02 8.44742275e+02 
6.57933225e-06 6.60195023e+02 7.02520852e+02 7.43433883e+02 7.95398869e+02 8.44671968e+02 
5.33669923e-06 6.58383938e+02 7.00790327e+02 7.42031947e+02 7.93942271e+02 8.44151716e+02 
4.32876128e-06 6.57298812e+02 6.99592482e+02 7.41429481e+02 7.93453259e+02 8.43657730e+02 
3.51119173e-06 6.56705750e+02 6.98815725e+02 7.41223274e+02 7.93474726e+02 8.43637988e+02 
2.84803587e-06 6.56411139e+02 6.98496299e+02 7.41109380e+02 7.93542776e+02 8.43547801e+02 
2.31012970e-06 6.56278512e+02 6.98357002e+02 7.41058107e+02 7.93532955e+02 8.43507202e+02 
1.87381742e-06 6.56224556e+02 6.98300332e+02 7.41037248e+02 7.93528960e+02 8.43490684e+02 
1.51991108e-06 6.56204790e+02 6.98279572e+02 7.41029607e+02 7.93527497e+02 8.43484634e+02 
1.23284674e-06 6.56198320e+02 6.98272777e+02 7.41027106e+02 7.93527018e+02 8.43482653e+02 
1.00000000e-06 6.56196478e+02 6.98270842e+02 7.41026393e+02 7.93526881e+02 8.43482089e+02 
8.11130831e-07 6.56196076e+02 6.98270421e+02 7.41026238e+02 7.93526851e+02 8.43481966e+02 
6.57933225e-07 6.56196076e+02 6.98270421e+02 7.41026238e+02 7.93526851e+02 8.43481966e+02 
5.33669923e-07 6.56196076e+02 6.98270421e+02 7.41026238e+02 7.93526851e+02 8.43481966e+02 
4.32876128e-07 6.56196076e+02 6.98270421e+02 7.41026238e+02 7.93526851e+02 8.43481966e+02 
3.51119173e-07 6.56196076e+02 6.98270421e+02 7.41026238e+02 7.93526851e+02 8.43481966e+02 
2.84803587e-07 6.56196076e+02 6.98270421e+02 7.41026238e+02 7.93526851e+02 8.43481966e+02 
2.31012970e-07 6.56196076e+02 6.98270421e+02 7.41026238e+02 7.93526851e+02 8.43481966e+02 
1.87381742e-07 6.56196076e+02 6.98270421e+02 7.41026238e+02 7.93526851e+02 8.43481966e+02 
1.51991108e-07 6.56196076e+02 6.98270421e+02 7.41026238e+02 7.93526851e+02 8.43481966e+02 
1.23284674e-07 6.56196076e+02 6.98270421e+02 7.41026238e+02 7.93526851e+02 8.43481966e+02 
1.00000000e-07 6.56196076e+02 6.98270421e+02 7.41026238e+02 7.93526851e+02 8.43481966e+02 
