P (bar) | T: -2σ | T: -1σ  | T: median | T: +1σ | T: +2σ 
1.00000000e+02 1.20085555e+03 1.20704469e+03 1.22406083e+03 1.25718186e+03 1.30672865e+03 
8.11130831e+01 1.20085467e+03 1.20704364e+03 1.22405995e+03 1.25718073e+03 1.30672742e+03 
6.57933225e+01 1.20085157e+03 1.20703996e+03 1.22405689e+03 1.25717677e+03 1.30672310e+03 
5.33669923e+01 1.20084211e+03 1.20702871e+03 1.22404753e+03 1.25716465e+03 1.30670990e+03 
4.32876128e+01 1.20081628e+03 1.20699800e+03 1.22402198e+03 1.25713158e+03 1.30667387e+03 
3.51119173e+01 1.20075279e+03 1.20692830e+03 1.22395919e+03 1.25705030e+03 1.30658531e+03 
2.84803587e+01 1.20059735e+03 1.20677441e+03 1.22381970e+03 1.25686974e+03 1.30638857e+03 
2.31012970e+01 1.20026160e+03 1.20644428e+03 1.22352381e+03 1.25650736e+03 1.30599253e+03 
1.87381742e+01 1.19966770e+03 1.20583661e+03 1.22294662e+03 1.25586288e+03 1.30526791e+03 
1.51991108e+01 1.19869381e+03 1.20490405e+03 1.22196144e+03 1.25480353e+03 1.30405172e+03 
1.23284674e+01 1.19726985e+03 1.20342018e+03 1.22023012e+03 1.25315197e+03 1.30150335e+03 
1.00000000e+01 1.19510071e+03 1.20142064e+03 1.21806584e+03 1.25051506e+03 1.29791316e+03 
8.11130831e+00 1.19251207e+03 1.19850096e+03 1.21498662e+03 1.24739981e+03 1.29433420e+03 
6.57933225e+00 1.18881401e+03 1.19521821e+03 1.21124890e+03 1.24350882e+03 1.29018967e+03 
5.33669923e+00 1.18477207e+03 1.19158542e+03 1.20698445e+03 1.23845031e+03 1.28540764e+03 
4.32876128e+00 1.18023736e+03 1.18715100e+03 1.20265135e+03 1.23319372e+03 1.28014273e+03 
3.51119173e+00 1.17541776e+03 1.18285258e+03 1.19784017e+03 1.22781053e+03 1.27442913e+03 
2.84803587e+00 1.17013304e+03 1.17806877e+03 1.19287602e+03 1.22248747e+03 1.26801880e+03 
2.31012970e+00 1.16513513e+03 1.17329756e+03 1.18785162e+03 1.21726149e+03 1.26148920e+03 
1.87381742e+00 1.15965196e+03 1.16840387e+03 1.18256064e+03 1.21191936e+03 1.25490167e+03 
1.51991108e+00 1.15414339e+03 1.16334153e+03 1.17749309e+03 1.20608192e+03 1.24828896e+03 
1.23284674e+00 1.14866823e+03 1.15844081e+03 1.17234133e+03 1.20077454e+03 1.24195299e+03 
1.00000000e+00 1.14348841e+03 1.15357474e+03 1.16760468e+03 1.19526337e+03 1.23527520e+03 
8.11130831e-01 1.13799568e+03 1.14855878e+03 1.16264790e+03 1.18984263e+03 1.22943604e+03 
6.57933225e-01 1.13229442e+03 1.14353647e+03 1.15769970e+03 1.18383476e+03 1.22400023e+03 
5.33669923e-01 1.12649948e+03 1.13832043e+03 1.15270785e+03 1.17835949e+03 1.21794536e+03 
4.32876128e-01 1.12068218e+03 1.13320787e+03 1.14771180e+03 1.17282472e+03 1.21071064e+03 
3.51119173e-01 1.11457485e+03 1.12794697e+03 1.14289110e+03 1.16791920e+03 1.20363335e+03 
2.84803587e-01 1.10846753e+03 1.12262382e+03 1.13797737e+03 1.16273703e+03 1.19777144e+03 
2.31012970e-01 1.10236020e+03 1.11737916e+03 1.13302535e+03 1.15692521e+03 1.19190953e+03 
1.87381742e-01 1.09625288e+03 1.11210475e+03 1.12810767e+03 1.15135758e+03 1.18600461e+03 
1.51991108e-01 1.09014556e+03 1.10684600e+03 1.12306552e+03 1.14612069e+03 1.17893150e+03 
1.23284674e-01 1.08403823e+03 1.10147373e+03 1.11812266e+03 1.14015246e+03 1.17185839e+03 
1.00000000e-01 1.07795285e+03 1.09586407e+03 1.11310606e+03 1.13519144e+03 1.16668354e+03 
8.11130831e-02 1.07226395e+03 1.09028345e+03 1.10809221e+03 1.12996139e+03 1.16028600e+03 
6.57933225e-02 1.06663312e+03 1.08485735e+03 1.10314660e+03 1.12498210e+03 1.15495656e+03 
5.33669923e-02 1.06078884e+03 1.07956477e+03 1.09817602e+03 1.12002181e+03 1.15040159e+03 
4.32876128e-02 1.05491608e+03 1.07407769e+03 1.09300578e+03 1.11481554e+03 1.14501424e+03 
3.51119173e-02 1.04915688e+03 1.06874057e+03 1.08797360e+03 1.10955785e+03 1.13915233e+03 
2.84803587e-02 1.04339769e+03 1.06306737e+03 1.08302272e+03 1.10433646e+03 1.13329042e+03 
2.31012970e-02 1.03621912e+03 1.05728327e+03 1.07801781e+03 1.09931074e+03 1.12742851e+03 
1.87381742e-02 1.02972497e+03 1.05167456e+03 1.07288509e+03 1.09432827e+03 1.12156660e+03 
1.51991108e-02 1.02381044e+03 1.04634732e+03 1.06787050e+03 1.08949870e+03 1.11570469e+03 
1.23284674e-02 1.01776934e+03 1.04094051e+03 1.06301913e+03 1.08435360e+03 1.11014057e+03 
1.00000000e-02 1.01097204e+03 1.03520967e+03 1.05803491e+03 1.07924331e+03 1.10596999e+03 
8.11130831e-03 1.00464302e+03 1.02950682e+03 1.05296476e+03 1.07412883e+03 1.09965836e+03 
6.57933225e-03 9.98535696e+02 1.02352720e+03 1.04776409e+03 1.06902819e+03 1.09416205e+03 
5.33669923e-03 9.92428372e+02 1.01817765e+03 1.04278496e+03 1.06398878e+03 1.08796942e+03 
4.32876128e-03 9.86222751e+02 1.01271395e+03 1.03773232e+03 1.05910801e+03 1.08331533e+03 
3.51119173e-03 9.80213724e+02 1.00696217e+03 1.03268415e+03 1.05430475e+03 1.07740435e+03 
2.84803587e-03 9.73002719e+02 1.00124895e+03 1.02761400e+03 1.04913619e+03 1.07239364e+03 
2.31012970e-03 9.66652401e+02 9.95469657e+02 1.02255458e+03 1.04426829e+03 1.06725329e+03 
1.87381742e-03 9.60678010e+02 9.89493671e+02 1.01770800e+03 1.03906778e+03 1.06284413e+03 
1.51991108e-03 9.54703619e+02 9.84047318e+02 1.01241334e+03 1.03355471e+03 1.05793565e+03 
1.23284674e-03 9.48729228e+02 9.78458737e+02 1.00730684e+03 1.02870339e+03 1.05314244e+03 
1.00000000e-03 9.41929716e+02 9.72997852e+02 1.00191958e+03 1.02387135e+03 1.04855399e+03 
8.11130831e-04 9.34403411e+02 9.67132826e+02 9.96803783e+02 1.01906997e+03 1.04362211e+03 
6.57933225e-04 9.26870691e+02 9.61160619e+02 9.91563291e+02 1.01430640e+03 1.03857711e+03 
5.33669923e-04 9.20061617e+02 9.54956873e+02 9.86693935e+02 1.00959796e+03 1.03381213e+03 
4.32876128e-04 9.13092749e+02 9.49296396e+02 9.81415542e+02 1.00472862e+03 1.02987659e+03 
3.51119173e-04 9.06924187e+02 9.43413027e+02 9.75955290e+02 9.99923309e+02 1.02594105e+03 
2.84803587e-04 9.00755625e+02 9.37524926e+02 9.70720759e+02 9.95335920e+02 1.02196633e+03 
2.31012970e-04 8.94587063e+02 9.31647596e+02 9.65446010e+02 9.90658280e+02 1.01806998e+03 
1.87381742e-04 8.88285628e+02 9.26035311e+02 9.60201006e+02 9.86009401e+02 1.01404549e+03 
1.51991108e-04 8.82120451e+02 9.20277675e+02 9.54943890e+02 9.81419740e+02 1.00919337e+03 
1.23284674e-04 8.75284467e+02 9.14560552e+02 9.49971626e+02 9.76840389e+02 1.00434893e+03 
1.00000000e-04 8.69096365e+02 9.08738514e+02 9.44270819e+02 9.72100832e+02 1.00030182e+03 
8.11130831e-05 8.62165307e+02 9.03105360e+02 9.38821220e+02 9.67377174e+02 9.95932322e+02 
6.57933225e-05 8.55237813e+02 8.97475006e+02 9.33548298e+02 9.62816382e+02 9.91506618e+02 
5.33669923e-05 8.48320561e+02 8.91196874e+02 9.28486580e+02 9.57650321e+02 9.86812555e+02 
4.32876128e-05 8.41718101e+02 8.85123538e+02 9.23322971e+02 9.53129985e+02 9.82511253e+02 
3.51119173e-05 8.35485562e+02 8.79113354e+02 9.17909059e+02 9.48573077e+02 9.78321495e+02 
2.84803587e-05 8.29366870e+02 8.73168873e+02 9.12453396e+02 9.43934751e+02 9.74037579e+02 
2.31012970e-05 8.23372154e+02 8.67349201e+02 9.07161170e+02 9.39332253e+02 9.70141793e+02 
1.87381742e-05 8.17349910e+02 8.62524874e+02 9.02525159e+02 9.35095641e+02 9.66730940e+02 
1.51991108e-05 8.11880008e+02 8.58041227e+02 8.98405458e+02 9.31385892e+02 9.63632920e+02 
1.23284674e-05 8.07139304e+02 8.54097875e+02 8.94809351e+02 9.28122084e+02 9.60947901e+02 
1.00000000e-05 8.03260047e+02 8.50580564e+02 8.91899059e+02 9.25389997e+02 9.58636851e+02 
8.11130831e-06 8.00291449e+02 8.47756243e+02 8.89762709e+02 9.23258024e+02 9.56547181e+02 
6.57933225e-06 7.98184297e+02 8.45752860e+02 8.88246299e+02 9.21856079e+02 9.55063905e+02 
5.33669923e-06 7.96608052e+02 8.44523502e+02 8.87152053e+02 9.20895209e+02 9.54093929e+02 
4.32876128e-06 7.95842889e+02 8.43832916e+02 8.86495870e+02 9.20333413e+02 9.53618881e+02 
3.51119173e-06 7.95424697e+02 8.43455484e+02 8.86167916e+02 9.20026331e+02 9.53370822e+02 
2.84803587e-06 7.95216956e+02 8.43267991e+02 8.86005000e+02 9.19873785e+02 9.53247596e+02 
2.31012970e-06 7.95123435e+02 8.43183585e+02 8.85931660e+02 9.19805112e+02 9.53192123e+02 
1.87381742e-06 7.95085389e+02 8.43149247e+02 8.85901823e+02 9.19777174e+02 9.53169555e+02 
1.51991108e-06 7.95071451e+02 8.43136668e+02 8.85890892e+02 9.19766940e+02 9.53161287e+02 
1.23284674e-06 7.95066889e+02 8.43132550e+02 8.85887315e+02 9.19763590e+02 9.53158581e+02 
1.00000000e-06 7.95065590e+02 8.43131378e+02 8.85886296e+02 9.19762636e+02 9.53157810e+02 
8.11130831e-07 7.95065307e+02 8.43131122e+02 8.85886074e+02 9.19762428e+02 9.53157642e+02 
6.57933225e-07 7.95065307e+02 8.43131122e+02 8.85886074e+02 9.19762428e+02 9.53157642e+02 
5.33669923e-07 7.95065307e+02 8.43131122e+02 8.85886074e+02 9.19762428e+02 9.53157642e+02 
4.32876128e-07 7.95065307e+02 8.43131122e+02 8.85886074e+02 9.19762428e+02 9.53157642e+02 
3.51119173e-07 7.95065307e+02 8.43131122e+02 8.85886074e+02 9.19762428e+02 9.53157642e+02 
2.84803587e-07 7.95065307e+02 8.43131122e+02 8.85886074e+02 9.19762428e+02 9.53157642e+02 
2.31012970e-07 7.95065307e+02 8.43131122e+02 8.85886074e+02 9.19762428e+02 9.53157642e+02 
1.87381742e-07 7.95065307e+02 8.43131122e+02 8.85886074e+02 9.19762428e+02 9.53157642e+02 
1.51991108e-07 7.95065307e+02 8.43131122e+02 8.85886074e+02 9.19762428e+02 9.53157642e+02 
1.23284674e-07 7.95065307e+02 8.43131122e+02 8.85886074e+02 9.19762428e+02 9.53157642e+02 
1.00000000e-07 7.95065307e+02 8.43131122e+02 8.85886074e+02 9.19762428e+02 9.53157642e+02 
