P (bar) | T: -2σ | T: -1σ  | T: median | T: +1σ | T: +2σ 
1.00000000e+01 3.02268167e+02 3.05242751e+02 3.10020151e+02 3.14932996e+02 3.18567254e+02 
8.30217568e+00 3.08373698e+02 3.12360292e+02 3.17664805e+02 3.23730404e+02 3.28497628e+02 
6.89261210e+00 3.14520378e+02 3.20729012e+02 3.27414057e+02 3.34838051e+02 3.40631327e+02 
5.72236766e+00 3.21402667e+02 3.30052778e+02 3.39076773e+02 3.47788165e+02 3.54437852e+02 
4.75081016e+00 3.28499891e+02 3.39840182e+02 3.51740110e+02 3.62206649e+02 3.70271508e+02 
3.94420606e+00 3.36038326e+02 3.50322629e+02 3.65121390e+02 3.77497511e+02 3.86772307e+02 
3.27454916e+00 3.43844369e+02 3.60454072e+02 3.78894388e+02 3.93481981e+02 4.04655906e+02 
2.71858824e+00 3.51795655e+02 3.71086422e+02 3.93004327e+02 4.09854138e+02 4.22380518e+02 
2.25701972e+00 3.59817483e+02 3.82130588e+02 4.07382692e+02 4.26504050e+02 4.40460252e+02 
1.87381742e+00 3.67869967e+02 3.93108915e+02 4.21575885e+02 4.43187311e+02 4.58674883e+02 
1.55567614e+00 3.75763344e+02 4.04301277e+02 4.35965709e+02 4.59831710e+02 4.77188593e+02 
1.29154967e+00 3.83607553e+02 4.15182960e+02 4.50022518e+02 4.76594243e+02 4.95361370e+02 
1.07226722e+00 3.91764085e+02 4.26003664e+02 4.64282419e+02 4.93050931e+02 5.13748516e+02 
8.90215085e-01 3.99920980e+02 4.37075416e+02 4.78642439e+02 5.09801423e+02 5.31713557e+02 
7.39072203e-01 4.07887061e+02 4.48090569e+02 4.93065580e+02 5.26271699e+02 5.49812801e+02 
6.13590727e-01 4.15703880e+02 4.59017548e+02 5.07357939e+02 5.43017127e+02 5.68033067e+02 
5.09413801e-01 4.23640513e+02 4.69931387e+02 5.21653380e+02 5.59687437e+02 5.86243052e+02 
4.22924287e-01 4.31461981e+02 4.80884882e+02 5.35772178e+02 5.76552442e+02 6.04419550e+02 
3.51119173e-01 4.39249672e+02 4.91772603e+02 5.50256727e+02 5.93120480e+02 6.22601488e+02 
2.91505306e-01 4.47147524e+02 5.02677397e+02 5.64797851e+02 6.09818086e+02 6.40772547e+02 
2.42012826e-01 4.55145096e+02 5.13573127e+02 5.79121784e+02 6.26639916e+02 6.58949046e+02 
2.00923300e-01 4.63142667e+02 5.24468857e+02 5.93155349e+02 6.43527839e+02 6.77125544e+02 
1.66810054e-01 4.71140238e+02 5.35364587e+02 6.07448335e+02 6.60348156e+02 6.95296497e+02 
1.38488637e-01 4.79137810e+02 5.46260317e+02 6.21873238e+02 6.77164785e+02 7.13478541e+02 
1.14975700e-01 4.87135381e+02 5.57156047e+02 6.35998043e+02 6.93846599e+02 7.31655040e+02 
9.54548457e-02 4.95132953e+02 5.68051778e+02 6.50446915e+02 7.10529908e+02 7.49831538e+02 
7.92482898e-02 5.03238443e+02 5.78947508e+02 6.64830634e+02 7.27348452e+02 7.68008037e+02 
6.57933225e-02 5.11356149e+02 5.89843238e+02 6.79334074e+02 7.44005963e+02 7.86184535e+02 
5.46227722e-02 5.19473855e+02 6.00738968e+02 6.93794832e+02 7.60643907e+02 8.04361033e+02 
4.53487851e-02 5.27521991e+02 6.11634698e+02 7.08004498e+02 7.77339732e+02 8.22537532e+02 
3.76493581e-02 5.35405868e+02 6.22530428e+02 7.22214163e+02 7.94035556e+02 8.40714030e+02 
3.12571585e-02 5.43289745e+02 6.33426159e+02 7.36423828e+02 8.10713750e+02 8.58924221e+02 
2.59502421e-02 5.51173622e+02 6.44321889e+02 7.50633494e+02 8.27368702e+02 8.77401557e+02 
2.15443469e-02 5.59113523e+02 6.55217619e+02 7.64843159e+02 8.44023654e+02 8.95705117e+02 
1.78864953e-02 5.67111095e+02 6.66113349e+02 7.79052824e+02 8.60678606e+02 9.14143001e+02 
1.48496826e-02 5.75108666e+02 6.76992106e+02 7.93262490e+02 8.77302767e+02 9.32580884e+02 
1.23284674e-02 5.83106238e+02 6.87792079e+02 8.07472155e+02 8.93918612e+02 9.50848479e+02 
1.02353102e-02 5.91103809e+02 6.98592052e+02 8.21681821e+02 9.10744966e+02 9.69077784e+02 
8.49753436e-03 5.99101380e+02 7.09392024e+02 8.35846626e+02 9.27503223e+02 9.87307090e+02 
7.05480231e-03 6.07098952e+02 7.20191997e+02 8.49987256e+02 9.44261481e+02 1.00553640e+03 
5.85702082e-03 6.15096523e+02 7.31027687e+02 8.64127886e+02 9.60993800e+02 1.02376570e+03 
4.86260158e-03 6.23094094e+02 7.41875924e+02 8.78268516e+02 9.77689625e+02 1.04199501e+03 
4.03701726e-03 6.31091666e+02 7.52724160e+02 8.92409147e+02 9.94385449e+02 1.06025015e+03 
3.35160265e-03 6.39089237e+02 7.63572397e+02 9.06549777e+02 1.01108650e+03 1.07859911e+03 
2.78255940e-03 6.47086808e+02 7.74420634e+02 9.20690407e+02 1.02786591e+03 1.09689675e+03 
2.31012970e-03 6.55084380e+02 7.85268871e+02 9.35018031e+02 1.04464531e+03 1.11502567e+03 
1.91791026e-03 6.63081951e+02 7.96117108e+02 9.49491191e+02 1.06142472e+03 1.13315459e+03 
1.59228279e-03 6.71079523e+02 8.06965345e+02 9.63778475e+02 1.07820412e+03 1.15137084e+03 
1.32194115e-03 6.79077094e+02 8.17813581e+02 9.77988140e+02 1.09496230e+03 1.16960014e+03 
1.09749877e-03 6.87074665e+02 8.28661818e+02 9.92197805e+02 1.11169554e+03 1.18782945e+03 
9.11162756e-04 6.95072237e+02 8.39510055e+02 1.00640747e+03 1.12847046e+03 1.20605875e+03 
7.56463328e-04 7.03069808e+02 8.50358292e+02 1.02061714e+03 1.14529580e+03 1.22428806e+03 
6.28029144e-04 7.11067379e+02 8.61206529e+02 1.03482680e+03 1.16210115e+03 1.24251736e+03 
5.21400829e-04 7.19064951e+02 8.72054766e+02 1.04903647e+03 1.17888055e+03 1.26074667e+03 
4.32876128e-04 7.27062522e+02 8.82903002e+02 1.06324613e+03 1.19567891e+03 1.27897598e+03 
3.59381366e-04 7.35060093e+02 8.93805165e+02 1.07745580e+03 1.21248259e+03 1.29720528e+03 
2.98364724e-04 7.43057665e+02 9.04718824e+02 1.09166546e+03 1.22928628e+03 1.31543459e+03 
2.47707636e-04 7.51055236e+02 9.15632483e+02 1.10587513e+03 1.24608996e+03 1.33366389e+03 
2.05651231e-04 7.59052808e+02 9.26546142e+02 1.12008479e+03 1.26289364e+03 1.35189320e+03 
1.70735265e-04 7.67050379e+02 9.37459801e+02 1.13429446e+03 1.27969733e+03 1.37012250e+03 
1.41747416e-04 7.75047950e+02 9.48373461e+02 1.14850412e+03 1.29650101e+03 1.38835181e+03 
1.17681195e-04 7.83045522e+02 9.59287120e+02 1.16271379e+03 1.31330470e+03 1.40658111e+03 
9.77009957e-05 7.91043093e+02 9.70200779e+02 1.17692346e+03 1.33010838e+03 1.42481042e+03 
8.11130831e-05 7.99040397e+02 9.81114073e+02 1.19113265e+03 1.34691150e+03 1.44303911e+03 
6.73415066e-05 8.07036651e+02 9.92025935e+02 1.20541077e+03 1.36371242e+03 1.46126542e+03 
5.59081018e-05 8.15029502e+02 1.00293315e+03 1.21974340e+03 1.38050619e+03 1.47948396e+03 
4.64158883e-05 8.23012463e+02 1.01382687e+03 1.23405829e+03 1.39727917e+03 1.49767997e+03 
3.85352859e-05 8.30969685e+02 1.02468547e+03 1.24832703e+03 1.41399808e+03 1.51581730e+03 
3.19926714e-05 8.38866882e+02 1.03546216e+03 1.26248813e+03 1.43052811e+03 1.53381782e+03 
2.65608778e-05 8.46638651e+02 1.04606768e+03 1.27642431e+03 1.44674699e+03 1.55153244e+03 
2.20513074e-05 8.54175536e+02 1.05635268e+03 1.28993931e+03 1.46245719e+03 1.56871168e+03 
1.83073828e-05 8.61318191e+02 1.06609970e+03 1.30274738e+03 1.47734565e+03 1.58499232e+03 
1.51991108e-05 8.67867728e+02 1.07503734e+03 1.31449189e+03 1.49099779e+03 1.59992104e+03 
1.26185688e-05 8.73617276e+02 1.08288330e+03 1.32480187e+03 1.50298239e+03 1.61302630e+03 
1.04761575e-05 8.78399358e+02 1.08940903e+03 1.33337700e+03 1.51295036e+03 1.62396325e+03 
8.69749003e-06 8.82132255e+02 1.09450302e+03 1.34007076e+03 1.52073137e+03 1.63250493e+03 
7.22080902e-06 8.84844705e+02 1.09820449e+03 1.34493468e+03 1.52638532e+03 1.63871161e+03 
5.99484250e-06 8.86666916e+02 1.10069112e+03 1.34820223e+03 1.53018362e+03 1.64288122e+03 
4.97702356e-06 8.87792411e+02 1.10222700e+03 1.35021485e+03 1.53252965e+03 1.64545660e+03 
4.13201240e-06 8.88428707e+02 1.10309530e+03 1.35134514e+03 1.53385597e+03 1.64691258e+03 
3.43046929e-06 8.88756794e+02 1.10354301e+03 1.35192793e+03 1.53453985e+03 1.64766332e+03 
2.84803587e-06 8.88910628e+02 1.10375294e+03 1.35220120e+03 1.53486051e+03 1.64801532e+03 
2.36448941e-06 8.88976050e+02 1.10384221e+03 1.35231741e+03 1.53499687e+03 1.64816502e+03 
1.96304065e-06 8.89001209e+02 1.10387655e+03 1.35236210e+03 1.53504932e+03 1.64822259e+03 
1.62975083e-06 8.89009911e+02 1.10388842e+03 1.35237756e+03 1.53506746e+03 1.64824250e+03 
1.35304777e-06 8.89012576e+02 1.10389206e+03 1.35238229e+03 1.53507301e+03 1.64824860e+03 
1.12332403e-06 8.89013253e+02 1.10389298e+03 1.35238349e+03 1.53507442e+03 1.64825015e+03 
9.32603347e-07 8.89013342e+02 1.10389310e+03 1.35238365e+03 1.53507461e+03 1.64825035e+03 
7.74263683e-07 8.89013342e+02 1.10389310e+03 1.35238365e+03 1.53507461e+03 1.64825035e+03 
6.42807312e-07 8.89013342e+02 1.10389310e+03 1.35238365e+03 1.53507461e+03 1.64825035e+03 
5.33669923e-07 8.89013342e+02 1.10389310e+03 1.35238365e+03 1.53507461e+03 1.64825035e+03 
4.43062146e-07 8.89013342e+02 1.10389310e+03 1.35238365e+03 1.53507461e+03 1.64825035e+03 
3.67837977e-07 8.89013342e+02 1.10389310e+03 1.35238365e+03 1.53507461e+03 1.64825035e+03 
3.05385551e-07 8.89013342e+02 1.10389310e+03 1.35238365e+03 1.53507461e+03 1.64825035e+03 
2.53536449e-07 8.89013342e+02 1.10389310e+03 1.35238365e+03 1.53507461e+03 1.64825035e+03 
2.10490414e-07 8.89013342e+02 1.10389310e+03 1.35238365e+03 1.53507461e+03 1.64825035e+03 
1.74752840e-07 8.89013342e+02 1.10389310e+03 1.35238365e+03 1.53507461e+03 1.64825035e+03 
1.45082878e-07 8.89013342e+02 1.10389310e+03 1.35238365e+03 1.53507461e+03 1.64825035e+03 
1.20450354e-07 8.89013342e+02 1.10389310e+03 1.35238365e+03 1.53507461e+03 1.64825035e+03 
1.00000000e-07 8.89013342e+02 1.10389310e+03 1.35238365e+03 1.53507461e+03 1.64825035e+03 
