Chemical species: H2O CH4
P (bar) | log_H2O: -2σ | log_H2O: -1σ | log_H2O: median | log_H2O: +1σ | log_H2O: +2σ 
1.00000000e+01 -0.12306460 -0.01773925 -0.00198072 -0.00033888 -0.00005904 
8.30217568e+00 -0.11872853 -0.01787233 -0.00198065 -0.00033888 -0.00005903 
6.89261210e+00 -0.11563864 -0.01772802 -0.00198057 -0.00033198 -0.00005903 
5.72236766e+00 -0.11394005 -0.01745730 -0.00198049 -0.00033198 -0.00005903 
4.75081016e+00 -0.11075392 -0.01716613 -0.00198042 -0.00033198 -0.00005903 
3.94420606e+00 -0.10525050 -0.01697401 -0.00198034 -0.00033198 -0.00005903 
3.27454916e+00 -0.09898317 -0.01682762 -0.00198027 -0.00033198 -0.00005903 
2.71858824e+00 -0.09476369 -0.01649899 -0.00198018 -0.00033198 -0.00005902 
2.25701972e+00 -0.09072692 -0.01614181 -0.00196707 -0.00032877 -0.00005723 
1.87381742e+00 -0.08925659 -0.01555620 -0.00196685 -0.00032877 -0.00005722 
1.55567614e+00 -0.08761958 -0.01524169 -0.00196667 -0.00032876 -0.00005722 
1.29154967e+00 -0.08280552 -0.01498357 -0.00196649 -0.00032876 -0.00005722 
1.07226722e+00 -0.08047781 -0.01477616 -0.00196631 -0.00033198 -0.00005722 
8.90215085e-01 -0.07425103 -0.01426647 -0.00194994 -0.00033198 -0.00005722 
7.39072203e-01 -0.07116092 -0.01368423 -0.00193305 -0.00032872 -0.00005722 
6.13590727e-01 -0.06741926 -0.01314934 -0.00190244 -0.00032869 -0.00005678 
5.09413801e-01 -0.06380057 -0.01246737 -0.00186583 -0.00032867 -0.00005678 
4.22924287e-01 -0.06123077 -0.01192118 -0.00185628 -0.00032865 -0.00005655 
3.51119173e-01 -0.05772021 -0.01126757 -0.00184443 -0.00032862 -0.00005655 
2.91505306e-01 -0.05562471 -0.01060962 -0.00181476 -0.00032776 -0.00005655 
2.42012826e-01 -0.05509234 -0.00992767 -0.00176900 -0.00032753 -0.00005655 
2.00923300e-01 -0.05472739 -0.00945952 -0.00171590 -0.00032729 -0.00005655 
1.66810054e-01 -0.05275912 -0.00909466 -0.00166703 -0.00032706 -0.00005641 
1.38488637e-01 -0.05077541 -0.00851992 -0.00161305 -0.00032683 -0.00005599 
1.14975700e-01 -0.04984827 -0.00798826 -0.00157726 -0.00032333 -0.00005544 
9.54548457e-02 -0.04903927 -0.00765273 -0.00151242 -0.00032060 -0.00005459 
7.92482898e-02 -0.04635410 -0.00741557 -0.00146663 -0.00031864 -0.00005433 
6.57933225e-02 -0.04398874 -0.00716956 -0.00142340 -0.00031047 -0.00005431 
5.46227722e-02 -0.04115131 -0.00705799 -0.00137539 -0.00030919 -0.00005428 
4.53487851e-02 -0.03981761 -0.00670405 -0.00131057 -0.00030470 -0.00005425 
3.76493581e-02 -0.03874865 -0.00632397 -0.00127684 -0.00030175 -0.00005423 
3.12571585e-02 -0.03687143 -0.00610699 -0.00124897 -0.00029278 -0.00005419 
2.59502421e-02 -0.03645158 -0.00589619 -0.00118624 -0.00028330 -0.00005410 
2.15443469e-02 -0.03603671 -0.00548778 -0.00114628 -0.00027206 -0.00005367 
1.78864953e-02 -0.03388142 -0.00506872 -0.00109490 -0.00025796 -0.00005342 
1.48496826e-02 -0.03358835 -0.00487461 -0.00103268 -0.00024702 -0.00005316 
1.23284674e-02 -0.03300658 -0.00459024 -0.00099220 -0.00023388 -0.00005274 
1.02353102e-02 -0.03252147 -0.00440280 -0.00097353 -0.00022689 -0.00005266 
8.49753436e-03 -0.03061180 -0.00420939 -0.00095272 -0.00022349 -0.00005230 
7.05480231e-03 -0.02935690 -0.00403698 -0.00092063 -0.00021693 -0.00005199 
5.85702082e-03 -0.02850909 -0.00392438 -0.00088784 -0.00021391 -0.00004941 
4.86260158e-03 -0.02680258 -0.00382974 -0.00084934 -0.00021135 -0.00004940 
4.03701726e-03 -0.02624488 -0.00377689 -0.00082333 -0.00020967 -0.00004938 
3.35160265e-03 -0.02569914 -0.00372900 -0.00081137 -0.00020513 -0.00004937 
2.78255940e-03 -0.02480731 -0.00367597 -0.00078534 -0.00020019 -0.00004802 
2.31012970e-03 -0.02290126 -0.00357867 -0.00075508 -0.00019566 -0.00004687 
1.91791026e-03 -0.02173642 -0.00350410 -0.00073004 -0.00019106 -0.00004629 
1.59228279e-03 -0.02040543 -0.00337482 -0.00071449 -0.00018771 -0.00004615 
1.32194115e-03 -0.01882884 -0.00318579 -0.00068842 -0.00018303 -0.00004549 
1.09749877e-03 -0.01749461 -0.00301270 -0.00066035 -0.00017735 -0.00004349 
9.11162756e-04 -0.01606162 -0.00293143 -0.00065178 -0.00017258 -0.00003820 
7.56463328e-04 -0.01549624 -0.00282123 -0.00063467 -0.00016795 -0.00003766 
6.28029144e-04 -0.01472262 -0.00274955 -0.00062457 -0.00016337 -0.00003326 
5.21400829e-04 -0.01352708 -0.00263659 -0.00060420 -0.00016024 -0.00002874 
4.32876128e-04 -0.01271181 -0.00260697 -0.00059810 -0.00015740 -0.00002477 
3.59381366e-04 -0.01195129 -0.00248098 -0.00058714 -0.00015408 -0.00002052 
2.98364724e-04 -0.01089331 -0.00233733 -0.00056214 -0.00014715 -0.00001816 
2.47707636e-04 -0.01019475 -0.00222185 -0.00054825 -0.00013933 -0.00001815 
2.05651231e-04 -0.00931509 -0.00211507 -0.00053054 -0.00013349 -0.00001589 
1.70735265e-04 -0.00838599 -0.00206500 -0.00051122 -0.00012631 -0.00001250 
1.41747416e-04 -0.00757701 -0.00198156 -0.00049841 -0.00012058 -0.00000894 
1.17681195e-04 -0.00679866 -0.00190645 -0.00048244 -0.00011469 -0.00000663 
9.77009957e-05 -0.00628985 -0.00183958 -0.00046986 -0.00010768 -0.00000549 
8.11130831e-05 -0.00578480 -0.00178205 -0.00046297 -0.00010399 -0.00000417 
6.73415066e-05 -0.00569317 -0.00167628 -0.00045204 -0.00009775 -0.00000284 
5.59081018e-05 -0.00523221 -0.00164415 -0.00044076 -0.00009045 -0.00000217 
4.64158883e-05 -0.00484152 -0.00157537 -0.00042186 -0.00007858 -0.00000158 
3.85352859e-05 -0.00458114 -0.00148605 -0.00040993 -0.00007385 -0.00000112 
3.19926714e-05 -0.00447050 -0.00136483 -0.00039423 -0.00006787 -0.00000080 
2.65608778e-05 -0.00415234 -0.00123594 -0.00037583 -0.00005987 -0.00000054 
2.20513074e-05 -0.00381129 -0.00113660 -0.00035510 -0.00005366 -0.00000037 
1.83073828e-05 -0.00343955 -0.00108982 -0.00033212 -0.00005184 -0.00000025 
1.51991108e-05 -0.00307820 -0.00103579 -0.00031485 -0.00004980 -0.00000017 
1.26185688e-05 -0.00285145 -0.00097915 -0.00030612 -0.00004577 -0.00000012 
1.04761575e-05 -0.00272224 -0.00093164 -0.00028954 -0.00004195 -0.00000008 
8.69749003e-06 -0.00250982 -0.00089964 -0.00027775 -0.00003652 -0.00000006 
7.22080902e-06 -0.00238761 -0.00083902 -0.00026102 -0.00003309 -0.00000004 
5.99484250e-06 -0.00229107 -0.00080074 -0.00024354 -0.00002842 -0.00000003 
4.97702356e-06 -0.00214210 -0.00076435 -0.00022464 -0.00002470 -0.00000002 
4.13201240e-06 -0.00201742 -0.00073740 -0.00021317 -0.00002103 -0.00000001 
3.43046929e-06 -0.00189574 -0.00070546 -0.00020148 -0.00001831 -0.00000001 
2.84803587e-06 -0.00178834 -0.00064828 -0.00019003 -0.00001580 -0.00000001 
2.36448941e-06 -0.00167420 -0.00059990 -0.00017509 -0.00001343 -0.00000000 
1.96304065e-06 -0.00156650 -0.00055893 -0.00016017 -0.00001110 -0.00000000 
1.62975083e-06 -0.00151858 -0.00052037 -0.00014659 -0.00000917 -0.00000000 
1.35304777e-06 -0.00146850 -0.00047756 -0.00013602 -0.00000782 -0.00000000 
1.12332403e-06 -0.00142710 -0.00045359 -0.00012716 -0.00000714 -0.00000000 
9.32603347e-07 -0.00137356 -0.00042523 -0.00011146 -0.00000619 -0.00000000 
7.74263683e-07 -0.00130631 -0.00039116 -0.00010025 -0.00000471 -0.00000000 
6.42807312e-07 -0.00124187 -0.00036810 -0.00008740 -0.00000384 -0.00000000 
5.33669923e-07 -0.00112233 -0.00033873 -0.00007867 -0.00000300 -0.00000000 
4.43062146e-07 -0.00104804 -0.00032732 -0.00006922 -0.00000224 -0.00000000 
3.67837977e-07 -0.00103728 -0.00031934 -0.00006130 -0.00000179 -0.00000000 
3.05385551e-07 -0.00099821 -0.00030552 -0.00005549 -0.00000139 -0.00000000 
2.53536449e-07 -0.00096746 -0.00029246 -0.00004841 -0.00000110 -0.00000000 
2.10490414e-07 -0.00092429 -0.00027331 -0.00004367 -0.00000089 -0.00000000 
1.74752840e-07 -0.00089290 -0.00026535 -0.00003791 -0.00000072 -0.00000000 
1.45082878e-07 -0.00088504 -0.00024753 -0.00003262 -0.00000059 -0.00000000 
1.20450354e-07 -0.00085890 -0.00022838 -0.00002938 -0.00000049 -0.00000000 
1.00000000e-07 -0.00084764 -0.00021808 -0.00002521 -0.00000037 -0.00000000 
P (bar) | log_CH4: -2σ | log_CH4: -1σ | log_CH4: median | log_CH4: +1σ | log_CH4: +2σ 
1.00000000e+01 -3.88021977 -3.11684472 -2.34238340 -1.40248774 -0.60942143 
8.30217568e+00 -3.88022034 -3.11684483 -2.34253679 -1.40228878 -0.62414919 
6.89261210e+00 -3.88022092 -3.12104000 -2.34269018 -1.40537832 -0.63322076 
5.72236766e+00 -3.88022149 -3.12104180 -2.34284356 -1.40892947 -0.64209278 
4.75081016e+00 -3.88022207 -3.12104360 -2.34299695 -1.41390356 -0.65096479 
3.94420606e+00 -3.88022264 -3.12104540 -2.34315034 -1.41851130 -0.66920044 
3.27454916e+00 -3.88022322 -3.12104720 -2.34330373 -1.42141431 -0.69107774 
2.71858824e+00 -3.88022494 -3.12105095 -2.34437144 -1.43028870 -0.71066995 
2.25701972e+00 -3.88361374 -3.12149899 -2.34495741 -1.43848228 -0.72566313 
1.87381742e+00 -3.88361411 -3.12172393 -2.34518796 -1.45806874 -0.73188489 
1.55567614e+00 -3.88361448 -3.12173379 -2.34542755 -1.46656922 -0.74225141 
1.29154967e+00 -3.88361485 -3.12174365 -2.34566713 -1.47448792 -0.76456834 
1.07226722e+00 -3.88361523 -3.12107193 -2.34590672 -1.48274573 -0.78022931 
8.90215085e-01 -3.88361583 -3.12109326 -2.34881970 -1.49115638 -0.80476041 
7.39072203e-01 -3.88361656 -3.12187341 -2.35300810 -1.51064023 -0.82069309 
6.13590727e-01 -3.88538264 -3.12194492 -2.36249412 -1.52694589 -0.84420588 
5.09413801e-01 -3.88538325 -3.12201643 -2.36811810 -1.54901326 -0.87120652 
4.22924287e-01 -3.88642935 -3.12208794 -2.37015737 -1.56943316 -0.88473322 
3.51119173e-01 -3.88642954 -3.12215945 -2.37319090 -1.59203816 -0.90778975 
2.91505306e-01 -3.88642988 -3.12488600 -2.37987437 -1.61824962 -0.92124029 
2.42012826e-01 -3.88643039 -3.12571623 -2.39109779 -1.64823650 -0.92834496 
2.00923300e-01 -3.88643090 -3.12636348 -2.40435324 -1.66830282 -0.93665783 
1.66810054e-01 -3.88987342 -3.12701073 -2.41896577 -1.68814301 -0.94497070 
1.38488637e-01 -3.89571778 -3.12765799 -2.43199624 -1.71476896 -0.95933974 
1.14975700e-01 -3.90156213 -3.13198547 -2.44349568 -1.74096060 -0.96931867 
9.54548457e-02 -3.90254547 -3.13457417 -2.46107406 -1.75990657 -0.97541200 
7.92482898e-02 -3.90436942 -3.13714388 -2.47310481 -1.77198515 -0.99672370 
6.57933225e-02 -3.90438640 -3.14821478 -2.48646474 -1.78775484 -1.01924049 
5.46227722e-02 -3.90440338 -3.15406333 -2.50712593 -1.80238138 -1.04496141 
4.53487851e-02 -3.90442036 -3.15827992 -2.52307650 -1.82198912 -1.06838726 
3.76493581e-02 -3.90443734 -3.16221670 -2.53243939 -1.84417744 -1.08115330 
3.12571585e-02 -3.90446372 -3.17323481 -2.54335607 -1.85661431 -1.09006011 
2.59502421e-02 -3.90598374 -3.18645468 -2.56646774 -1.87523254 -1.11372386 
2.15443469e-02 -3.90999823 -3.20626246 -2.58580469 -1.91200711 -1.11918854 
1.78864953e-02 -3.91479197 -3.22858330 -2.60401184 -1.93916232 -1.12503816 
1.48496826e-02 -3.91524534 -3.24717111 -2.62500939 -1.96571263 -1.13011791 
1.23284674e-02 -3.91924072 -3.26991545 -2.64181321 -1.98094160 -1.14260434 
1.02353102e-02 -3.91924874 -3.28292338 -2.65107493 -1.99711132 -1.14643091 
8.49753436e-03 -3.92816814 -3.29023945 -2.66010977 -2.01908674 -1.16755734 
7.05480231e-03 -3.94140975 -3.30349748 -2.67492969 -2.03623312 -1.18802267 
5.85702082e-03 -3.95447999 -3.31015235 -2.69215821 -2.04758401 -1.20939366 
4.86260158e-03 -3.95468184 -3.31624341 -2.70955861 -2.05764750 -1.23312847 
4.03701726e-03 -3.95488369 -3.31745795 -2.72358522 -2.06288492 -1.25129294 
3.35160265e-03 -3.95508554 -3.32981948 -2.73101457 -2.07141754 -1.25262998 
2.78255940e-03 -3.96209929 -3.34191789 -2.74388086 -2.07911877 -1.25786972 
2.31012970e-03 -3.96966736 -3.34945977 -2.76023133 -2.08834399 -1.29707143 
1.91791026e-03 -3.97308573 -3.36115749 -2.77537106 -2.09756870 -1.32974520 
1.59228279e-03 -3.97650410 -3.36638518 -2.78831626 -2.11512376 -1.37016522 
1.32194115e-03 -3.98668536 -3.37752411 -2.80291104 -2.14057775 -1.40214937 
1.09749877e-03 -4.03631507 -3.38961258 -2.81849511 -2.16359884 -1.40648118 
9.11162756e-04 -4.08079199 -3.40344786 -2.82513891 -2.17372639 -1.44402396 
7.56463328e-04 -4.11390532 -3.41576208 -2.83736489 -2.18997610 -1.46895679 
6.28029144e-04 -4.15146389 -3.42553191 -2.84273147 -2.20380850 -1.47955868 
5.21400829e-04 -4.20361415 -3.43468823 -2.85707075 -2.21876513 -1.51860677 
4.32876128e-04 -4.29735552 -3.44245773 -2.86350556 -2.22604268 -1.54697426 
3.59381366e-04 -4.35826843 -3.45146658 -2.86943966 -2.24574168 -1.58727864 
2.98364724e-04 -4.38269722 -3.47248882 -2.89037765 -2.27077744 -1.61601025 
2.47707636e-04 -4.48828496 -3.49567664 -2.89982491 -2.29451977 -1.67513932 
2.05651231e-04 -4.57089654 -3.51787259 -2.91571518 -2.31598574 -1.70506893 
1.70735265e-04 -4.62418065 -3.54012743 -2.92992490 -2.32613916 -1.72625326 
1.41747416e-04 -4.69992801 -3.55775624 -2.94100338 -2.34700157 -1.76358627 
1.17681195e-04 -4.82565180 -3.58105069 -2.95662401 -2.35936146 -1.81500103 
9.77009957e-05 -4.97693237 -3.60718526 -2.96642640 -2.37591592 -1.84373834 
8.11130831e-05 -5.14201921 -3.62293406 -2.97360941 -2.39503412 -1.90181090 
6.73415066e-05 -5.22198580 -3.65158376 -2.98295735 -2.41477876 -1.93708622 
5.59081018e-05 -5.35135161 -3.68487678 -2.99500032 -2.42447631 -1.94585742 
4.64158883e-05 -5.51838222 -3.74279016 -3.01416190 -2.44249284 -1.95578169 
3.85352859e-05 -5.68541282 -3.77125258 -3.02798954 -2.47674758 -1.98770243 
3.19926714e-05 -5.85244342 -3.81820386 -3.04245346 -2.50408169 -1.99754923 
2.65608778e-05 -6.02148316 -3.87346983 -3.06424085 -2.54938851 -2.02162060 
2.20513074e-05 -6.17331410 -3.91157974 -3.09156114 -2.58512837 -2.06136565 
1.83073828e-05 -6.32514504 -3.92864481 -3.11913434 -2.60594517 -2.10394492 
1.51991108e-05 -6.43950368 -3.94673368 -3.14136896 -2.62353791 -2.17074753 
1.26185688e-05 -6.56161823 -3.98845361 -3.15289591 -2.65018751 -2.18544550 
1.04761575e-05 -6.72660988 -4.03086827 -3.17777429 -2.67113554 -2.22056579 
8.69749003e-06 -6.89337720 -4.08356886 -3.19563195 -2.68794828 -2.24924072 
7.22080902e-06 -7.06073641 -4.13012728 -3.22195343 -2.71658487 -2.27040632 
5.99484250e-06 -7.22809562 -4.18880283 -3.25209304 -2.73827072 -2.28008046 
4.97702356e-06 -7.39545483 -4.25207408 -3.28954604 -2.75508119 -2.32090424 
4.13201240e-06 -7.56281403 -4.31752105 -3.31191725 -2.77106677 -2.33916765 
3.43046929e-06 -7.73017324 -4.39710683 -3.33473262 -2.79332832 -2.36149481 
2.84803587e-06 -7.89865703 -4.45165428 -3.36235636 -2.82851591 -2.38844951 
2.36448941e-06 -8.06562144 -4.51566926 -3.40128548 -2.86013993 -2.43016703 
1.96304065e-06 -8.22742590 -4.59643393 -3.43537357 -2.89236851 -2.45142396 
1.62975083e-06 -8.38923036 -4.69236017 -3.47354313 -2.92303973 -2.45737513 
1.35304777e-06 -8.55103481 -4.74950780 -3.50631429 -2.95956780 -2.47794563 
1.12332403e-06 -8.71283927 -4.78786544 -3.53680312 -2.98237350 -2.50701615 
9.32603347e-07 -8.87464430 -4.87700334 -3.59189739 -3.01587237 -2.54005392 
7.74263683e-07 -9.04343460 -4.97390780 -3.64269893 -3.04658712 -2.55405776 
6.42807312e-07 -9.21499857 -5.05743406 -3.69656154 -3.07498209 -2.55819230 
5.33669923e-07 -9.38656254 -5.20568983 -3.74662923 -3.10924571 -2.59779089 
4.43062146e-07 -9.55812650 -5.29169085 -3.79826334 -3.12517652 -2.61837815 
3.67837977e-07 -9.72969047 -5.39547221 -3.85410032 -3.13477719 -2.63595864 
3.05385551e-07 -9.90067874 -5.50439470 -3.89710218 -3.15434942 -2.64611402 
2.53536449e-07 -10.06917231 -5.60216074 -3.95373005 -3.17288252 -2.67284070 
2.10490414e-07 -10.23766587 -5.69499658 -3.99816912 -3.20191935 -2.67898132 
1.74752840e-07 -10.40615944 -5.78019407 -4.05960955 -3.21512589 -2.69381062 
1.45082878e-07 -10.57465301 -5.88187939 -4.12729187 -3.25128826 -2.70986557 
1.20450354e-07 -10.74314657 -5.98714038 -4.17059226 -3.28090438 -2.70993144 
1.00000000e-07 -10.91164014 -6.09055253 -4.24040675 -3.30046629 -2.72453512 
