P (bar) | T: -2σ | T: -1σ  | T: median | T: +1σ | T: +2σ 
1.00000000e+02 1.03797728e+03 1.21562086e+03 1.54106495e+03 2.03225437e+03 2.37099498e+03 
8.11130831e+01 1.03797606e+03 1.21561906e+03 1.54106211e+03 2.03224994e+03 2.37098949e+03 
6.57933225e+01 1.03797179e+03 1.21561275e+03 1.54105214e+03 2.03223438e+03 2.37097023e+03 
5.33669923e+01 1.03795876e+03 1.21559345e+03 1.54102169e+03 2.03218685e+03 2.37091139e+03 
4.32876128e+01 1.03792316e+03 1.21554079e+03 1.54093856e+03 2.03205709e+03 2.37075076e+03 
3.51119173e+01 1.03783567e+03 1.21541135e+03 1.54073423e+03 2.03173814e+03 2.37035591e+03 
2.84803587e+01 1.03764133e+03 1.21512380e+03 1.54028033e+03 2.03102965e+03 2.36947882e+03 
2.31012970e+01 1.03725011e+03 1.21454497e+03 1.53936663e+03 2.02960343e+03 2.36771322e+03 
1.87381742e+01 1.03653430e+03 1.21348588e+03 1.53769482e+03 2.02699387e+03 2.36448269e+03 
1.51991108e+01 1.03533960e+03 1.21171824e+03 1.53490456e+03 2.02263849e+03 2.35909090e+03 
1.23284674e+01 1.03351268e+03 1.20901518e+03 1.53063771e+03 2.01597828e+03 2.35084583e+03 
1.00000000e+01 1.03093888e+03 1.20520706e+03 1.52462650e+03 2.00659525e+03 2.33923000e+03 
8.11130831e+00 1.02757553e+03 1.20023075e+03 1.51677126e+03 1.99433384e+03 2.32405087e+03 
6.57933225e+00 1.02346530e+03 1.19414937e+03 1.50717165e+03 1.97934961e+03 2.30550098e+03 
5.33669923e+00 1.01872285e+03 1.18713258e+03 1.49609547e+03 1.96206055e+03 2.28409781e+03 
4.32876128e+00 1.01350151e+03 1.17940724e+03 1.48390082e+03 1.94302567e+03 2.26053338e+03 
3.51119173e+00 1.00794751e+03 1.17120164e+03 1.47094808e+03 1.92280745e+03 2.23550403e+03 
2.84803587e+00 1.00215080e+03 1.16270476e+03 1.45768288e+03 1.90187151e+03 2.20958616e+03 
2.31012970e+00 9.96288180e+02 1.15404977e+03 1.44422459e+03 1.88054602e+03 2.18318605e+03 
1.87381742e+00 9.90461550e+02 1.14536516e+03 1.43054586e+03 1.85903133e+03 2.15655173e+03 
1.51991108e+00 9.84537438e+02 1.13666991e+03 1.41649597e+03 1.83743443e+03 2.12981561e+03 
1.23284674e+00 9.78604555e+02 1.12796180e+03 1.40242528e+03 1.81580555e+03 2.10303992e+03 
1.00000000e+00 9.72668619e+02 1.11924920e+03 1.38853399e+03 1.79416554e+03 2.07625044e+03 
8.11130831e-01 9.66642563e+02 1.11053521e+03 1.37466816e+03 1.77252206e+03 2.04945668e+03 
6.57933225e-01 9.60346947e+02 1.10182083e+03 1.36080171e+03 1.75087762e+03 2.02266172e+03 
5.33669923e-01 9.54351045e+02 1.09310645e+03 1.34693526e+03 1.72923556e+03 1.99587259e+03 
4.32876128e-01 9.48207284e+02 1.08442007e+03 1.33322103e+03 1.70781777e+03 1.96932072e+03 
3.51119173e-01 9.41943574e+02 1.07578563e+03 1.31967623e+03 1.68639998e+03 1.94276886e+03 
2.84803587e-01 9.35679864e+02 1.06675790e+03 1.30613143e+03 1.66498220e+03 1.91621699e+03 
2.31012970e-01 9.29416154e+02 1.05797333e+03 1.29223262e+03 1.64356441e+03 1.88966512e+03 
1.87381742e-01 9.23152444e+02 1.04937375e+03 1.27806314e+03 1.62214662e+03 1.86311326e+03 
1.51991108e-01 9.16998593e+02 1.04077417e+03 1.26389367e+03 1.60072883e+03 1.83656139e+03 
1.23284674e-01 9.11009931e+02 1.03184095e+03 1.24985706e+03 1.57931105e+03 1.81000952e+03 
1.00000000e-01 9.05021269e+02 1.02282735e+03 1.23559151e+03 1.55789326e+03 1.78345766e+03 
8.11130831e-02 8.99032607e+02 1.01381374e+03 1.22138524e+03 1.53647547e+03 1.75690579e+03 
6.57933225e-02 8.93043945e+02 1.00488877e+03 1.20721576e+03 1.51505768e+03 1.73035393e+03 
5.33669923e-02 8.87055283e+02 9.96010455e+02 1.19356507e+03 1.49363989e+03 1.70380206e+03 
4.32876128e-02 8.81066621e+02 9.87230643e+02 1.18028376e+03 1.47214408e+03 1.67725019e+03 
3.51119173e-02 8.75077959e+02 9.78460879e+02 1.16621031e+03 1.45063195e+03 1.65069833e+03 
2.84803587e-02 8.69089297e+02 9.69733532e+02 1.15218401e+03 1.42911981e+03 1.62412228e+03 
2.31012970e-02 8.63100635e+02 9.61073458e+02 1.13848452e+03 1.40760768e+03 1.59725490e+03 
1.87381742e-02 8.57223958e+02 9.52509989e+02 1.12466341e+03 1.38610496e+03 1.57038752e+03 
1.51991108e-02 8.51584500e+02 9.44011559e+02 1.11043252e+03 1.36488931e+03 1.54352014e+03 
1.23284674e-02 8.45945041e+02 9.35254190e+02 1.09620163e+03 1.34347320e+03 1.51665276e+03 
1.00000000e-02 8.40305583e+02 9.26820921e+02 1.08288488e+03 1.32197116e+03 1.48978538e+03 
8.11130831e-03 8.34493649e+02 9.17976241e+02 1.06918354e+03 1.30056703e+03 1.46291800e+03 
6.57933225e-03 8.28500779e+02 9.09206462e+02 1.05503024e+03 1.27907543e+03 1.43605062e+03 
5.33669923e-03 8.22507909e+02 9.00265298e+02 1.04087693e+03 1.25758384e+03 1.40918324e+03 
4.32876128e-03 8.16515039e+02 8.91373245e+02 1.02672363e+03 1.23609225e+03 1.38231586e+03 
3.51119173e-03 8.10522170e+02 8.82596131e+02 1.01257033e+03 1.21451992e+03 1.35544848e+03 
2.84803587e-03 8.04529300e+02 8.73832321e+02 9.98550792e+02 1.19323406e+03 1.32858109e+03 
2.31012970e-03 7.98762960e+02 8.65259618e+02 9.84827373e+02 1.17177125e+03 1.30171371e+03 
1.87381742e-03 7.92721364e+02 8.56613324e+02 9.71103954e+02 1.15007421e+03 1.27484633e+03 
1.51991108e-03 7.86550690e+02 8.47779766e+02 9.57264934e+02 1.12837718e+03 1.24797895e+03 
1.23284674e-03 7.80557820e+02 8.38798183e+02 9.43126389e+02 1.10668015e+03 1.22111157e+03 
1.00000000e-03 7.74564951e+02 8.29877564e+02 9.29620045e+02 1.08498311e+03 1.19424419e+03 
8.11130831e-04 7.68572081e+02 8.21078302e+02 9.15730347e+02 1.06315607e+03 1.16737681e+03 
6.57933225e-04 7.62491178e+02 8.12078413e+02 9.01838022e+02 1.04166863e+03 1.14050943e+03 
5.33669923e-04 7.56991620e+02 8.03347895e+02 8.88116284e+02 1.02059612e+03 1.11364205e+03 
4.32876128e-04 7.51048010e+02 7.94252166e+02 8.74493254e+02 9.98859279e+02 1.08677467e+03 
3.51119173e-04 7.45044137e+02 7.85599039e+02 8.61073402e+02 9.76892613e+02 1.05990729e+03 
2.84803587e-04 7.38981776e+02 7.76871928e+02 8.47653551e+02 9.55461595e+02 1.03303991e+03 
2.31012970e-04 7.32614862e+02 7.68291095e+02 8.33980309e+02 9.34263177e+02 1.00617253e+03 
1.87381742e-04 7.26621992e+02 7.59098860e+02 8.19933220e+02 9.12397158e+02 9.79305153e+02 
1.51991108e-04 7.20480133e+02 7.50436098e+02 8.05780896e+02 8.90515606e+02 9.53856466e+02 
1.23284674e-04 7.14419504e+02 7.41440912e+02 7.91888289e+02 8.69172063e+02 9.28508587e+02 
1.00000000e-04 7.08091559e+02 7.32550303e+02 7.77866449e+02 8.48829546e+02 9.03161838e+02 
8.11130831e-05 7.01136866e+02 7.23628591e+02 7.64303337e+02 8.26636227e+02 8.77264795e+02 
6.57933225e-05 6.94156573e+02 7.14552208e+02 7.50651202e+02 8.05299719e+02 8.49386723e+02 
5.33669923e-05 6.87710006e+02 7.05417935e+02 7.37199902e+02 7.84575204e+02 8.21842952e+02 
4.32876128e-05 6.80792183e+02 6.96182363e+02 7.23300973e+02 7.63309952e+02 7.96522361e+02 
3.51119173e-05 6.74958620e+02 6.87148005e+02 7.10034822e+02 7.42236521e+02 7.70542278e+02 
2.84803587e-05 6.66604121e+02 6.78185371e+02 6.96806788e+02 7.22382804e+02 7.44178813e+02 
2.31012970e-05 6.58303070e+02 6.68759728e+02 6.84170581e+02 7.02873277e+02 7.19192467e+02 
1.87381742e-05 6.49722600e+02 6.60091273e+02 6.71459809e+02 6.85054065e+02 6.97342584e+02 
1.51991108e-05 6.42165159e+02 6.51048359e+02 6.60249163e+02 6.70538708e+02 6.81466283e+02 
1.23284674e-05 6.34163761e+02 6.41989568e+02 6.49659388e+02 6.58844685e+02 6.71039560e+02 
1.00000000e-05 6.25319591e+02 6.33010118e+02 6.40692348e+02 6.51401126e+02 6.64334207e+02 
8.11130831e-06 6.17010508e+02 6.25283131e+02 6.34087217e+02 6.46542684e+02 6.60527875e+02 
6.57933225e-06 6.10672005e+02 6.19400082e+02 6.29608911e+02 6.43195637e+02 6.57772629e+02 
5.33669923e-06 6.05894631e+02 6.15532441e+02 6.26621994e+02 6.41429773e+02 6.56274369e+02 
4.32876128e-06 6.02578329e+02 6.13203349e+02 6.25023874e+02 6.40111811e+02 6.55376676e+02 
3.51119173e-06 6.00855821e+02 6.11915079e+02 6.24064607e+02 6.39454376e+02 6.54886052e+02 
2.84803587e-06 6.00130564e+02 6.11213124e+02 6.23661213e+02 6.39065602e+02 6.54642329e+02 
2.31012970e-06 5.99824503e+02 6.10897120e+02 6.23453740e+02 6.38906150e+02 6.54532610e+02 
1.87381742e-06 5.99699989e+02 6.10773184e+02 6.23364247e+02 6.38840037e+02 6.54487974e+02 
1.51991108e-06 5.99654375e+02 6.10730314e+02 6.23331463e+02 6.38815817e+02 6.54471622e+02 
1.23284674e-06 5.99639446e+02 6.10716283e+02 6.23320733e+02 6.38807890e+02 6.54466270e+02 
1.00000000e-06 5.99635194e+02 6.10712287e+02 6.23317677e+02 6.38805632e+02 6.54464746e+02 
8.11130831e-07 5.99634267e+02 6.10711416e+02 6.23317011e+02 6.38805140e+02 6.54464414e+02 
6.57933225e-07 5.99634267e+02 6.10711416e+02 6.23317011e+02 6.38805140e+02 6.54464414e+02 
5.33669923e-07 5.99634267e+02 6.10711416e+02 6.23317011e+02 6.38805140e+02 6.54464414e+02 
4.32876128e-07 5.99634267e+02 6.10711416e+02 6.23317011e+02 6.38805140e+02 6.54464414e+02 
3.51119173e-07 5.99634267e+02 6.10711416e+02 6.23317011e+02 6.38805140e+02 6.54464414e+02 
2.84803587e-07 5.99634267e+02 6.10711416e+02 6.23317011e+02 6.38805140e+02 6.54464414e+02 
2.31012970e-07 5.99634267e+02 6.10711416e+02 6.23317011e+02 6.38805140e+02 6.54464414e+02 
1.87381742e-07 5.99634267e+02 6.10711416e+02 6.23317011e+02 6.38805140e+02 6.54464414e+02 
1.51991108e-07 5.99634267e+02 6.10711416e+02 6.23317011e+02 6.38805140e+02 6.54464414e+02 
1.23284674e-07 5.99634267e+02 6.10711416e+02 6.23317011e+02 6.38805140e+02 6.54464414e+02 
1.00000000e-07 5.99634267e+02 6.10711416e+02 6.23317011e+02 6.38805140e+02 6.54464414e+02 
