P (bar) | T: -2σ | T: -1σ  | T: median | T: +1σ | T: +2σ 
1.00000000e+01 3.48564849e+02 4.94566649e+02 9.16777786e+02 1.27440117e+03 1.44793001e+03 
8.30217568e+00 3.54463486e+02 4.99661270e+02 9.18026525e+02 1.27341591e+03 1.44423985e+03 
6.89261210e+00 3.60463204e+02 5.06127112e+02 9.20118546e+02 1.27328844e+03 1.43866747e+03 
5.72236766e+00 3.67385779e+02 5.13118757e+02 9.20838011e+02 1.27289251e+03 1.43630206e+03 
4.75081016e+00 3.75007384e+02 5.19538452e+02 9.23062866e+02 1.27116606e+03 1.43265104e+03 
3.94420606e+00 3.81517938e+02 5.27951518e+02 9.24467374e+02 1.26990574e+03 1.43119168e+03 
3.27454916e+00 3.88317180e+02 5.37011936e+02 9.25920992e+02 1.26979796e+03 1.42882509e+03 
2.71858824e+00 3.97610184e+02 5.44261271e+02 9.27402032e+02 1.26734145e+03 1.42617593e+03 
2.25701972e+00 4.08315062e+02 5.52360954e+02 9.28062729e+02 1.26553438e+03 1.42350327e+03 
1.87381742e+00 4.17286337e+02 5.59632547e+02 9.30708050e+02 1.26323314e+03 1.41749729e+03 
1.55567614e+00 4.25946586e+02 5.70657884e+02 9.34999906e+02 1.26210010e+03 1.41189584e+03 
1.29154967e+00 4.35661155e+02 5.79902085e+02 9.38550674e+02 1.26039775e+03 1.41199418e+03 
1.07226722e+00 4.44819881e+02 5.91235829e+02 9.41101565e+02 1.25833662e+03 1.40855929e+03 
8.90215085e-01 4.54279148e+02 6.00350172e+02 9.49420229e+02 1.25759634e+03 1.40485860e+03 
7.39072203e-01 4.60933475e+02 6.07178189e+02 9.51064679e+02 1.25697537e+03 1.40453443e+03 
6.13590727e-01 4.70260267e+02 6.15380981e+02 9.52747050e+02 1.25735164e+03 1.40421026e+03 
5.09413801e-01 4.78163067e+02 6.23155589e+02 9.59406388e+02 1.25427187e+03 1.40200157e+03 
4.22924287e-01 4.86609774e+02 6.30787043e+02 9.61692641e+02 1.25010533e+03 1.40007241e+03 
3.51119173e-01 4.95276253e+02 6.39346003e+02 9.61550291e+02 1.24714602e+03 1.39893001e+03 
2.91505306e-01 5.03942731e+02 6.47168987e+02 9.62163930e+02 1.24521620e+03 1.39879214e+03 
2.42012826e-01 5.12263138e+02 6.55051849e+02 9.62320605e+02 1.24419387e+03 1.39865428e+03 
2.00923300e-01 5.19532729e+02 6.62737656e+02 9.66113730e+02 1.24157040e+03 1.39747211e+03 
1.66810054e-01 5.29722371e+02 6.73939095e+02 9.66998190e+02 1.24006355e+03 1.39801441e+03 
1.38488637e-01 5.38608645e+02 6.80565521e+02 9.70705674e+02 1.23836104e+03 1.39824069e+03 
1.14975700e-01 5.45937920e+02 6.91560005e+02 9.72462648e+02 1.23871363e+03 1.39725783e+03 
9.54548457e-02 5.53942536e+02 7.00028233e+02 9.75716015e+02 1.23907020e+03 1.39606541e+03 
7.92482898e-02 5.59187131e+02 7.08549741e+02 9.77697879e+02 1.23768524e+03 1.39571373e+03 
6.57933225e-02 5.67806442e+02 7.18227880e+02 9.78832351e+02 1.23722392e+03 1.39372597e+03 
5.46227722e-02 5.76425753e+02 7.26762938e+02 9.84183561e+02 1.23622301e+03 1.39381632e+03 
4.53487851e-02 5.85021250e+02 7.35671779e+02 9.87576808e+02 1.23581518e+03 1.39429875e+03 
3.76493581e-02 5.90134282e+02 7.44014903e+02 9.89868172e+02 1.23530585e+03 1.39430702e+03 
3.12571585e-02 5.89254861e+02 7.52889702e+02 9.95236221e+02 1.23452752e+03 1.39526359e+03 
2.59502421e-02 5.96692023e+02 7.61293889e+02 9.97312812e+02 1.23495992e+03 1.39574601e+03 
2.15443469e-02 6.04129185e+02 7.68778808e+02 1.00222325e+03 1.23416133e+03 1.39622844e+03 
1.78864953e-02 6.11566347e+02 7.75172635e+02 1.00546227e+03 1.23414432e+03 1.39671086e+03 
1.48496826e-02 6.18168909e+02 7.81013747e+02 1.00824969e+03 1.23476504e+03 1.39608411e+03 
1.23284674e-02 6.23789805e+02 7.87895349e+02 1.01019726e+03 1.23542004e+03 1.39496972e+03 
1.02353102e-02 6.28183104e+02 7.94290604e+02 1.01148155e+03 1.23720314e+03 1.39466067e+03 
8.49753436e-03 6.30377521e+02 8.01990910e+02 1.01458938e+03 1.23787078e+03 1.39617275e+03 
7.05480231e-03 6.37890409e+02 8.09686087e+02 1.01860877e+03 1.23735613e+03 1.39603488e+03 
5.85702082e-03 6.42422819e+02 8.16639423e+02 1.02336707e+03 1.23798252e+03 1.39589702e+03 
4.86260158e-03 6.43436436e+02 8.19311130e+02 1.02696128e+03 1.23958320e+03 1.39575916e+03 
4.03701726e-03 6.44450052e+02 8.25035030e+02 1.03068605e+03 1.24174872e+03 1.39545767e+03 
3.35160265e-03 6.50351043e+02 8.31586177e+02 1.03361862e+03 1.24351900e+03 1.39513350e+03 
2.78255940e-03 6.52323153e+02 8.36075207e+02 1.03753000e+03 1.24323102e+03 1.39582809e+03 
2.31012970e-03 6.52209166e+02 8.43605016e+02 1.04251879e+03 1.24401216e+03 1.39768802e+03 
1.91791026e-03 6.59335431e+02 8.48205620e+02 1.04675336e+03 1.24517458e+03 1.39949562e+03 
1.59228279e-03 6.66595033e+02 8.55592781e+02 1.04768815e+03 1.24416340e+03 1.40130323e+03 
1.32194115e-03 6.71792995e+02 8.59189108e+02 1.05271080e+03 1.24501779e+03 1.40249140e+03 
1.09749877e-03 6.71500512e+02 8.63454007e+02 1.05540841e+03 1.24823325e+03 1.40104291e+03 
9.11162756e-04 6.76632082e+02 8.68445810e+02 1.05799556e+03 1.24963402e+03 1.40019628e+03 
7.56463328e-04 6.82752235e+02 8.71622690e+02 1.06379476e+03 1.25466212e+03 1.40230564e+03 
6.28029144e-04 6.84871857e+02 8.75728404e+02 1.06788647e+03 1.26086579e+03 1.40510288e+03 
5.21400829e-04 6.86852820e+02 8.79159155e+02 1.07277451e+03 1.26572470e+03 1.40652436e+03 
4.32876128e-04 6.88833784e+02 8.81918816e+02 1.07716811e+03 1.26856465e+03 1.40863372e+03 
3.59381366e-04 6.92396995e+02 8.82226928e+02 1.07930087e+03 1.26935943e+03 1.41022657e+03 
2.98364724e-04 6.95190102e+02 8.85228274e+02 1.08052222e+03 1.27372827e+03 1.41043555e+03 
2.47707636e-04 6.94776673e+02 8.88922852e+02 1.08379962e+03 1.27779603e+03 1.41064452e+03 
2.05651231e-04 6.96757637e+02 8.92962033e+02 1.08851556e+03 1.28169040e+03 1.41085350e+03 
1.70735265e-04 6.98738600e+02 8.97086891e+02 1.09164846e+03 1.28674941e+03 1.41362023e+03 
1.41747416e-04 7.00719563e+02 9.01798571e+02 1.09548663e+03 1.29068967e+03 1.41603536e+03 
1.17681195e-04 7.00242256e+02 8.99501493e+02 1.09934854e+03 1.29519432e+03 1.41672317e+03 
9.77009957e-05 6.95869512e+02 9.01794454e+02 1.10571140e+03 1.30182244e+03 1.41968978e+03 
8.11130831e-05 6.94128549e+02 9.02416726e+02 1.11117251e+03 1.30750054e+03 1.41983966e+03 
6.73415066e-05 6.94025264e+02 9.02387995e+02 1.11494007e+03 1.31050805e+03 1.42426891e+03 
5.59081018e-05 6.92281034e+02 9.06326144e+02 1.11861651e+03 1.31510654e+03 1.42817771e+03 
4.64158883e-05 6.84729153e+02 9.07326986e+02 1.12205740e+03 1.32310317e+03 1.43150208e+03 
3.85352859e-05 6.79630388e+02 9.07300826e+02 1.12594844e+03 1.33081167e+03 1.43729929e+03 
3.19926714e-05 6.77447365e+02 9.03673245e+02 1.12829383e+03 1.33760906e+03 1.44015408e+03 
2.65608778e-05 6.77698817e+02 9.03156637e+02 1.13196022e+03 1.34152031e+03 1.44347756e+03 
2.20513074e-05 6.82521123e+02 9.02604042e+02 1.13662234e+03 1.34840992e+03 1.44673667e+03 
1.83073828e-05 6.83634666e+02 9.01408809e+02 1.14036702e+03 1.35345095e+03 1.45019039e+03 
1.51991108e-05 6.84498833e+02 9.03198155e+02 1.14438413e+03 1.35938379e+03 1.45248928e+03 
1.26185688e-05 6.85257447e+02 9.04627430e+02 1.14556486e+03 1.36218568e+03 1.45670533e+03 
1.04761575e-05 6.85888410e+02 9.02570871e+02 1.14758469e+03 1.36505999e+03 1.46079665e+03 
8.69749003e-06 6.86380940e+02 9.02782986e+02 1.14908281e+03 1.36590925e+03 1.46589207e+03 
7.22080902e-06 6.86738830e+02 9.02117048e+02 1.15072909e+03 1.36974804e+03 1.46739550e+03 
5.99484250e-06 6.86979258e+02 9.01540380e+02 1.15230830e+03 1.37127801e+03 1.46868857e+03 
4.97702356e-06 6.87127759e+02 9.01451047e+02 1.15334964e+03 1.37180922e+03 1.46972209e+03 
4.13201240e-06 6.87211714e+02 9.01178429e+02 1.15377192e+03 1.37197590e+03 1.47017953e+03 
3.43046929e-06 6.87255003e+02 9.01021033e+02 1.15385413e+03 1.37206184e+03 1.47036727e+03 
2.84803587e-06 6.87275301e+02 9.00947233e+02 1.15389268e+03 1.37208956e+03 1.47045530e+03 
2.36448941e-06 6.87283932e+02 9.00916016e+02 1.15390908e+03 1.37209722e+03 1.47049274e+03 
1.96304065e-06 6.87287252e+02 9.00907407e+02 1.15391538e+03 1.37210016e+03 1.47050714e+03 
1.62975083e-06 6.87288400e+02 9.00904428e+02 1.15391756e+03 1.37210118e+03 1.47051212e+03 
1.35304777e-06 6.87288752e+02 9.00903516e+02 1.15391823e+03 1.37210149e+03 1.47051364e+03 
1.12332403e-06 6.87288841e+02 9.00903285e+02 1.15391840e+03 1.37210157e+03 1.47051403e+03 
9.32603347e-07 6.87288853e+02 9.00903254e+02 1.15391842e+03 1.37210158e+03 1.47051408e+03 
7.74263683e-07 6.87288853e+02 9.00903254e+02 1.15391842e+03 1.37210158e+03 1.47051408e+03 
6.42807312e-07 6.87288853e+02 9.00903254e+02 1.15391842e+03 1.37210158e+03 1.47051408e+03 
5.33669923e-07 6.87288853e+02 9.00903254e+02 1.15391842e+03 1.37210158e+03 1.47051408e+03 
4.43062146e-07 6.87288853e+02 9.00903254e+02 1.15391842e+03 1.37210158e+03 1.47051408e+03 
3.67837977e-07 6.87288853e+02 9.00903254e+02 1.15391842e+03 1.37210158e+03 1.47051408e+03 
3.05385551e-07 6.87288853e+02 9.00903254e+02 1.15391842e+03 1.37210158e+03 1.47051408e+03 
2.53536449e-07 6.87288853e+02 9.00903254e+02 1.15391842e+03 1.37210158e+03 1.47051408e+03 
2.10490414e-07 6.87288853e+02 9.00903254e+02 1.15391842e+03 1.37210158e+03 1.47051408e+03 
1.74752840e-07 6.87288853e+02 9.00903254e+02 1.15391842e+03 1.37210158e+03 1.47051408e+03 
1.45082878e-07 6.87288853e+02 9.00903254e+02 1.15391842e+03 1.37210158e+03 1.47051408e+03 
1.20450354e-07 6.87288853e+02 9.00903254e+02 1.15391842e+03 1.37210158e+03 1.47051408e+03 
1.00000000e-07 6.87288853e+02 9.00903254e+02 1.15391842e+03 1.37210158e+03 1.47051408e+03 
