Chemical species: H2 He H2O CO2 SO2 CO H2S NH3 CH4
P (bar) | log_H2: -2σ | log_H2: -1σ | log_H2: median | log_H2: +1σ | log_H2: +2σ 
1.00000000e+02 -0.06993064 -0.06975471 -0.06962684 -0.06944676 -0.06933193 
8.11130831e+01 -0.06992949 -0.06975331 -0.06962559 -0.06944546 -0.06933067 
6.57933225e+01 -0.06992836 -0.06975192 -0.06962435 -0.06944415 -0.06932941 
5.33669923e+01 -0.06992722 -0.06975053 -0.06962311 -0.06944285 -0.06932815 
4.32876128e+01 -0.06992609 -0.06974913 -0.06962188 -0.06944156 -0.06932690 
3.51119173e+01 -0.06992496 -0.06974766 -0.06962066 -0.06944027 -0.06932566 
2.84803587e+01 -0.06991966 -0.06974257 -0.06961627 -0.06943599 -0.06932159 
2.31012970e+01 -0.06991046 -0.06973442 -0.06960935 -0.06942874 -0.06931482 
1.87381742e+01 -0.06990145 -0.06972676 -0.06960169 -0.06942139 -0.06930821 
1.51991108e+01 -0.06989263 -0.06971863 -0.06959455 -0.06941427 -0.06930175 
1.23284674e+01 -0.06988400 -0.06971041 -0.06958709 -0.06940711 -0.06929545 
1.00000000e+01 -0.06987645 -0.06970281 -0.06958010 -0.06940028 -0.06928929 
8.11130831e+00 -0.06984953 -0.06967872 -0.06955843 -0.06938192 -0.06927301 
6.57933225e+00 -0.06982439 -0.06965628 -0.06953832 -0.06936488 -0.06925785 
5.33669923e+00 -0.06980087 -0.06963534 -0.06951954 -0.06934916 -0.06924370 
4.32876128e+00 -0.06977883 -0.06961576 -0.06950195 -0.06933413 -0.06923048 
3.51119173e+00 -0.06975813 -0.06959760 -0.06948557 -0.06932011 -0.06921810 
2.84803587e+00 -0.06973594 -0.06957792 -0.06946771 -0.06930504 -0.06920470 
2.31012970e+00 -0.06971345 -0.06955849 -0.06944960 -0.06928964 -0.06919097 
1.87381742e+00 -0.06969344 -0.06954127 -0.06943346 -0.06927597 -0.06917849 
1.51991108e+00 -0.06967553 -0.06952588 -0.06941883 -0.06926377 -0.06916721 
1.23284674e+00 -0.06965940 -0.06951188 -0.06940561 -0.06925290 -0.06915704 
1.00000000e+00 -0.06964511 -0.06949884 -0.06939364 -0.06924305 -0.06914781 
8.11130831e-01 -0.06963591 -0.06949069 -0.06938628 -0.06923688 -0.06914196 
6.57933225e-01 -0.06962814 -0.06948379 -0.06938005 -0.06923164 -0.06913700 
5.33669923e-01 -0.06962162 -0.06947793 -0.06937475 -0.06922719 -0.06913276 
4.32876128e-01 -0.06961630 -0.06947292 -0.06937021 -0.06922337 -0.06912913 
3.51119173e-01 -0.06961173 -0.06946861 -0.06936631 -0.06922007 -0.06912599 
2.84803587e-01 -0.06960825 -0.06946543 -0.06936333 -0.06921755 -0.06912360 
2.31012970e-01 -0.06960577 -0.06946317 -0.06936119 -0.06921573 -0.06912190 
1.87381742e-01 -0.06960375 -0.06946131 -0.06935942 -0.06921424 -0.06912050 
1.51991108e-01 -0.06960210 -0.06945980 -0.06935798 -0.06921300 -0.06911935 
1.23284674e-01 -0.06960076 -0.06945855 -0.06935680 -0.06921198 -0.06911840 
1.00000000e-01 -0.06959966 -0.06945754 -0.06935584 -0.06921114 -0.06911761 
8.11130831e-02 -0.06959820 -0.06945598 -0.06935427 -0.06920916 -0.06911590 
6.57933225e-02 -0.06959723 -0.06945478 -0.06935275 -0.06920732 -0.06911431 
5.33669923e-02 -0.06959658 -0.06945373 -0.06935137 -0.06920560 -0.06911284 
4.32876128e-02 -0.06959608 -0.06945281 -0.06935011 -0.06920400 -0.06911147 
3.51119173e-02 -0.06959571 -0.06945193 -0.06934908 -0.06920251 -0.06911020 
2.84803587e-02 -0.06959436 -0.06944773 -0.06934554 -0.06919721 -0.06910563 
2.31012970e-02 -0.06959205 -0.06944110 -0.06933903 -0.06918900 -0.06909747 
1.87381742e-02 -0.06958992 -0.06943429 -0.06933336 -0.06918067 -0.06908903 
1.51991108e-02 -0.06958804 -0.06942884 -0.06932740 -0.06917244 -0.06908098 
1.23284674e-02 -0.06958651 -0.06942463 -0.06932156 -0.06916590 -0.06907412 
1.00000000e-02 -0.06958546 -0.06942084 -0.06931621 -0.06915926 -0.06906715 
8.11130831e-03 -0.06957416 -0.06940598 -0.06930039 -0.06914228 -0.06904977 
6.57933225e-03 -0.06956399 -0.06939219 -0.06928438 -0.06912585 -0.06903182 
5.33669923e-03 -0.06955536 -0.06938148 -0.06927229 -0.06911116 -0.06901906 
4.32876128e-03 -0.06954892 -0.06937131 -0.06926126 -0.06909935 -0.06900770 
3.51119173e-03 -0.06954563 -0.06936522 -0.06925420 -0.06908934 -0.06899756 
2.84803587e-03 -0.06952271 -0.06934555 -0.06923669 -0.06907356 -0.06898234 
2.31012970e-03 -0.06948236 -0.06931383 -0.06920892 -0.06905168 -0.06896388 
1.87381742e-03 -0.06944989 -0.06928885 -0.06918761 -0.06903577 -0.06895107 
1.51991108e-03 -0.06942645 -0.06927138 -0.06917244 -0.06902773 -0.06894420 
1.23284674e-03 -0.06941375 -0.06926292 -0.06916647 -0.06902487 -0.06894381 
1.00000000e-03 -0.06941415 -0.06926555 -0.06917057 -0.06903052 -0.06895064 
8.11130831e-04 -0.06936546 -0.06923214 -0.06914369 -0.06901400 -0.06893690 
6.57933225e-04 -0.06932977 -0.06920732 -0.06912473 -0.06900304 -0.06892795 
5.33669923e-04 -0.06930792 -0.06919211 -0.06911236 -0.06899761 -0.06892208 
4.32876128e-04 -0.06929521 -0.06918245 -0.06910477 -0.06899552 -0.06892239 
3.51119173e-04 -0.06928629 -0.06918041 -0.06910418 -0.06899898 -0.06892611 
2.84803587e-04 -0.06927841 -0.06917813 -0.06910263 -0.06900080 -0.06892880 
2.31012970e-04 -0.06927134 -0.06917330 -0.06909867 -0.06899954 -0.06892898 
1.87381742e-04 -0.06926587 -0.06917044 -0.06909665 -0.06899991 -0.06892998 
1.51991108e-04 -0.06926292 -0.06916913 -0.06909615 -0.06900107 -0.06893143 
1.23284674e-04 -0.06926390 -0.06916965 -0.06909663 -0.06900286 -0.06893346 
1.00000000e-04 -0.06926461 -0.06917089 -0.06909803 -0.06900482 -0.06893592 
8.11130831e-05 -0.06926553 -0.06917349 -0.06910106 -0.06900803 -0.06893958 
6.57933225e-05 -0.06926747 -0.06917637 -0.06910400 -0.06901164 -0.06894344 
5.33669923e-05 -0.06927024 -0.06917931 -0.06910671 -0.06901561 -0.06894742 
4.32876128e-05 -0.06927291 -0.06918231 -0.06911017 -0.06901982 -0.06895151 
3.51119173e-05 -0.06927497 -0.06918553 -0.06911394 -0.06902411 -0.06895566 
2.84803587e-05 -0.06927872 -0.06919017 -0.06911841 -0.06902934 -0.06896074 
2.31012970e-05 -0.06928415 -0.06919617 -0.06912435 -0.06903554 -0.06896676 
1.87381742e-05 -0.06928967 -0.06920227 -0.06913048 -0.06904178 -0.06897285 
1.51991108e-05 -0.06929526 -0.06920845 -0.06913670 -0.06904810 -0.06897902 
1.23284674e-05 -0.06930091 -0.06921469 -0.06914282 -0.06905448 -0.06898527 
1.00000000e-05 -0.06930697 -0.06922108 -0.06914936 -0.06906094 -0.06899159 
8.11130831e-06 -0.06931675 -0.06923059 -0.06915832 -0.06906920 -0.06899914 
6.57933225e-06 -0.06932669 -0.06924025 -0.06916760 -0.06907757 -0.06900680 
5.33669923e-06 -0.06933694 -0.06925000 -0.06917711 -0.06908606 -0.06901456 
4.32876128e-06 -0.06934733 -0.06925987 -0.06918644 -0.06909467 -0.06902243 
3.51119173e-06 -0.06935748 -0.06926987 -0.06919588 -0.06910332 -0.06903039 
2.84803587e-06 -0.06936929 -0.06928082 -0.06920616 -0.06911207 -0.06903831 
2.31012970e-06 -0.06938263 -0.06929233 -0.06921697 -0.06912093 -0.06904617 
1.87381742e-06 -0.06939618 -0.06930397 -0.06922776 -0.06912975 -0.06905414 
1.51991108e-06 -0.06940996 -0.06931606 -0.06923907 -0.06913887 -0.06906220 
1.23284674e-06 -0.06942397 -0.06932846 -0.06925033 -0.06914799 -0.06907037 
1.00000000e-06 -0.06943821 -0.06934091 -0.06926132 -0.06915737 -0.06907864 
8.11130831e-07 -0.06945208 -0.06935211 -0.06927186 -0.06916592 -0.06908593 
6.57933225e-07 -0.06946617 -0.06936362 -0.06928248 -0.06917423 -0.06909309 
5.33669923e-07 -0.06948048 -0.06937542 -0.06929306 -0.06918295 -0.06910033 
4.32876128e-07 -0.06949502 -0.06938742 -0.06930385 -0.06919203 -0.06910765 
3.51119173e-07 -0.06950933 -0.06939996 -0.06931468 -0.06920047 -0.06911504 
2.84803587e-07 -0.06952297 -0.06941139 -0.06932508 -0.06920876 -0.06912187 
2.31012970e-07 -0.06953596 -0.06942214 -0.06933471 -0.06921639 -0.06912810 
1.87381742e-07 -0.06954913 -0.06943294 -0.06934456 -0.06922425 -0.06913439 
1.51991108e-07 -0.06956247 -0.06944393 -0.06935469 -0.06923206 -0.06914074 
1.23284674e-07 -0.06957599 -0.06945539 -0.06936481 -0.06923983 -0.06914714 
1.00000000e-07 -0.06958896 -0.06946716 -0.06937516 -0.06924738 -0.06915360 
P (bar) | log_He: -2σ | log_He: -1σ | log_He: median | log_He: +1σ | log_He: +2σ 
1.00000000e+02 -0.83948171 -0.83930579 -0.83917792 -0.83899784 -0.83888301 
8.11130831e+01 -0.83948057 -0.83930439 -0.83917667 -0.83899653 -0.83888175 
6.57933225e+01 -0.83947944 -0.83930300 -0.83917543 -0.83899523 -0.83888049 
5.33669923e+01 -0.83947830 -0.83930161 -0.83917419 -0.83899393 -0.83887923 
4.32876128e+01 -0.83947717 -0.83930021 -0.83917296 -0.83899264 -0.83887798 
3.51119173e+01 -0.83947604 -0.83929874 -0.83917174 -0.83899135 -0.83887674 
2.84803587e+01 -0.83947074 -0.83929365 -0.83916735 -0.83898707 -0.83887267 
2.31012970e+01 -0.83946154 -0.83928550 -0.83916043 -0.83897982 -0.83886590 
1.87381742e+01 -0.83945253 -0.83927783 -0.83915277 -0.83897247 -0.83885929 
1.51991108e+01 -0.83944371 -0.83926971 -0.83914563 -0.83896535 -0.83885283 
1.23284674e+01 -0.83943508 -0.83926149 -0.83913817 -0.83895819 -0.83884653 
1.00000000e+01 -0.83942753 -0.83925389 -0.83913118 -0.83895136 -0.83884037 
8.11130831e+00 -0.83940061 -0.83922980 -0.83910951 -0.83893299 -0.83882409 
6.57933225e+00 -0.83937547 -0.83920736 -0.83908940 -0.83891596 -0.83880893 
5.33669923e+00 -0.83935195 -0.83918642 -0.83907061 -0.83890024 -0.83879478 
4.32876128e+00 -0.83932990 -0.83916683 -0.83905303 -0.83888521 -0.83878156 
3.51119173e+00 -0.83930920 -0.83914868 -0.83903665 -0.83887119 -0.83876918 
2.84803587e+00 -0.83928702 -0.83912900 -0.83901878 -0.83885612 -0.83875577 
2.31012970e+00 -0.83926453 -0.83910957 -0.83900067 -0.83884072 -0.83874205 
1.87381742e+00 -0.83924452 -0.83909235 -0.83898454 -0.83882705 -0.83872957 
1.51991108e+00 -0.83922660 -0.83907695 -0.83896991 -0.83881485 -0.83871829 
1.23284674e+00 -0.83921048 -0.83906296 -0.83895668 -0.83880398 -0.83870812 
1.00000000e+00 -0.83919619 -0.83904992 -0.83894472 -0.83879413 -0.83869889 
8.11130831e-01 -0.83918699 -0.83904177 -0.83893736 -0.83878796 -0.83869304 
6.57933225e-01 -0.83917922 -0.83903487 -0.83893113 -0.83878272 -0.83868808 
5.33669923e-01 -0.83917270 -0.83902901 -0.83892583 -0.83877827 -0.83868384 
4.32876128e-01 -0.83916738 -0.83902400 -0.83892129 -0.83877445 -0.83868021 
3.51119173e-01 -0.83916281 -0.83901969 -0.83891739 -0.83877115 -0.83867707 
2.84803587e-01 -0.83915932 -0.83901650 -0.83891441 -0.83876863 -0.83867467 
2.31012970e-01 -0.83915685 -0.83901424 -0.83891227 -0.83876681 -0.83867298 
1.87381742e-01 -0.83915483 -0.83901239 -0.83891050 -0.83876532 -0.83867158 
1.51991108e-01 -0.83915318 -0.83901088 -0.83890906 -0.83876408 -0.83867042 
1.23284674e-01 -0.83915184 -0.83900963 -0.83890788 -0.83876306 -0.83866948 
1.00000000e-01 -0.83915074 -0.83900861 -0.83890692 -0.83876222 -0.83866869 
8.11130831e-02 -0.83914927 -0.83900705 -0.83890535 -0.83876024 -0.83866698 
6.57933225e-02 -0.83914830 -0.83900586 -0.83890383 -0.83875840 -0.83866539 
5.33669923e-02 -0.83914766 -0.83900481 -0.83890245 -0.83875668 -0.83866392 
4.32876128e-02 -0.83914716 -0.83900388 -0.83890118 -0.83875507 -0.83866255 
3.51119173e-02 -0.83914679 -0.83900301 -0.83890016 -0.83875359 -0.83866128 
2.84803587e-02 -0.83914544 -0.83899881 -0.83889662 -0.83874829 -0.83865671 
2.31012970e-02 -0.83914313 -0.83899218 -0.83889011 -0.83874008 -0.83864855 
1.87381742e-02 -0.83914100 -0.83898537 -0.83888444 -0.83873175 -0.83864011 
1.51991108e-02 -0.83913912 -0.83897992 -0.83887848 -0.83872352 -0.83863205 
1.23284674e-02 -0.83913758 -0.83897571 -0.83887264 -0.83871698 -0.83862520 
1.00000000e-02 -0.83913654 -0.83897192 -0.83886729 -0.83871034 -0.83861823 
8.11130831e-03 -0.83912524 -0.83895705 -0.83885147 -0.83869336 -0.83860084 
6.57933225e-03 -0.83911506 -0.83894326 -0.83883546 -0.83867693 -0.83858290 
5.33669923e-03 -0.83910644 -0.83893256 -0.83882337 -0.83866224 -0.83857014 
4.32876128e-03 -0.83910000 -0.83892238 -0.83881234 -0.83865043 -0.83855878 
3.51119173e-03 -0.83909671 -0.83891629 -0.83880527 -0.83864042 -0.83854864 
2.84803587e-03 -0.83907379 -0.83889663 -0.83878777 -0.83862464 -0.83853342 
2.31012970e-03 -0.83903344 -0.83886491 -0.83876000 -0.83860276 -0.83851496 
1.87381742e-03 -0.83900097 -0.83883993 -0.83873869 -0.83858685 -0.83850215 
1.51991108e-03 -0.83897753 -0.83882246 -0.83872352 -0.83857881 -0.83849528 
1.23284674e-03 -0.83896483 -0.83881400 -0.83871755 -0.83857595 -0.83849489 
1.00000000e-03 -0.83896523 -0.83881663 -0.83872165 -0.83858159 -0.83850172 
8.11130831e-04 -0.83891654 -0.83878322 -0.83869477 -0.83856508 -0.83848798 
6.57933225e-04 -0.83888085 -0.83875840 -0.83867580 -0.83855411 -0.83847903 
5.33669923e-04 -0.83885900 -0.83874319 -0.83866344 -0.83854869 -0.83847316 
4.32876128e-04 -0.83884628 -0.83873353 -0.83865585 -0.83854660 -0.83847346 
3.51119173e-04 -0.83883737 -0.83873148 -0.83865526 -0.83855006 -0.83847719 
2.84803587e-04 -0.83882949 -0.83872921 -0.83865370 -0.83855188 -0.83847988 
2.31012970e-04 -0.83882241 -0.83872438 -0.83864975 -0.83855062 -0.83848006 
1.87381742e-04 -0.83881695 -0.83872151 -0.83864773 -0.83855099 -0.83848106 
1.51991108e-04 -0.83881400 -0.83872021 -0.83864723 -0.83855215 -0.83848251 
1.23284674e-04 -0.83881498 -0.83872073 -0.83864770 -0.83855394 -0.83848454 
1.00000000e-04 -0.83881569 -0.83872197 -0.83864910 -0.83855590 -0.83848700 
8.11130831e-05 -0.83881661 -0.83872457 -0.83865214 -0.83855911 -0.83849066 
6.57933225e-05 -0.83881855 -0.83872745 -0.83865507 -0.83856272 -0.83849452 
5.33669923e-05 -0.83882132 -0.83873039 -0.83865779 -0.83856669 -0.83849850 
4.32876128e-05 -0.83882398 -0.83873339 -0.83866124 -0.83857090 -0.83850259 
3.51119173e-05 -0.83882605 -0.83873661 -0.83866502 -0.83857519 -0.83850674 
2.84803587e-05 -0.83882980 -0.83874125 -0.83866949 -0.83858041 -0.83851182 
2.31012970e-05 -0.83883523 -0.83874725 -0.83867543 -0.83858662 -0.83851783 
1.87381742e-05 -0.83884075 -0.83875335 -0.83868156 -0.83859286 -0.83852393 
1.51991108e-05 -0.83884634 -0.83875952 -0.83868777 -0.83859917 -0.83853010 
1.23284674e-05 -0.83885199 -0.83876577 -0.83869389 -0.83860556 -0.83853635 
1.00000000e-05 -0.83885805 -0.83877216 -0.83870044 -0.83861202 -0.83854267 
8.11130831e-06 -0.83886783 -0.83878167 -0.83870940 -0.83862028 -0.83855022 
6.57933225e-06 -0.83887777 -0.83879133 -0.83871868 -0.83862865 -0.83855788 
5.33669923e-06 -0.83888802 -0.83880108 -0.83872819 -0.83863714 -0.83856564 
4.32876128e-06 -0.83889841 -0.83881095 -0.83873752 -0.83864575 -0.83857350 
3.51119173e-06 -0.83890855 -0.83882095 -0.83874696 -0.83865439 -0.83858147 
2.84803587e-06 -0.83892037 -0.83883189 -0.83875723 -0.83866315 -0.83858939 
2.31012970e-06 -0.83893370 -0.83884341 -0.83876805 -0.83867201 -0.83859725 
1.87381742e-06 -0.83894726 -0.83885505 -0.83877884 -0.83868083 -0.83860522 
1.51991108e-06 -0.83896104 -0.83886714 -0.83879015 -0.83868995 -0.83861328 
1.23284674e-06 -0.83897505 -0.83887953 -0.83880141 -0.83869907 -0.83862145 
1.00000000e-06 -0.83898929 -0.83889198 -0.83881239 -0.83870845 -0.83862972 
8.11130831e-07 -0.83900316 -0.83890318 -0.83882294 -0.83871700 -0.83863701 
6.57933225e-07 -0.83901725 -0.83891470 -0.83883356 -0.83872531 -0.83864417 
5.33669923e-07 -0.83903156 -0.83892650 -0.83884413 -0.83873403 -0.83865141 
4.32876128e-07 -0.83904610 -0.83893850 -0.83885493 -0.83874311 -0.83865873 
3.51119173e-07 -0.83906041 -0.83895104 -0.83886576 -0.83875155 -0.83866612 
2.84803587e-07 -0.83907404 -0.83896247 -0.83887616 -0.83875983 -0.83867295 
2.31012970e-07 -0.83908704 -0.83897321 -0.83888579 -0.83876746 -0.83867918 
1.87381742e-07 -0.83910021 -0.83898402 -0.83889563 -0.83877532 -0.83868547 
1.51991108e-07 -0.83911355 -0.83899500 -0.83890577 -0.83878314 -0.83869182 
1.23284674e-07 -0.83912707 -0.83900647 -0.83891589 -0.83879091 -0.83869822 
1.00000000e-07 -0.83914004 -0.83901824 -0.83892624 -0.83879846 -0.83870468 
P (bar) | log_H2O: -2σ | log_H2O: -1σ | log_H2O: median | log_H2O: +1σ | log_H2O: +2σ 
1.00000000e+02 -2.76748866 -2.72394099 -2.66670157 -2.63046034 -2.58294315 
8.11130831e+01 -2.76766056 -2.72413895 -2.66682320 -2.63062423 -2.58307524 
6.57933225e+01 -2.76783245 -2.72433690 -2.66693949 -2.63078811 -2.58320733 
5.33669923e+01 -2.76800435 -2.72453485 -2.66705577 -2.63095199 -2.58333942 
4.32876128e+01 -2.76817624 -2.72472778 -2.66717206 -2.63111588 -2.58347150 
3.51119173e+01 -2.76835362 -2.72491375 -2.66728835 -2.63127976 -2.58360359 
2.84803587e+01 -2.76899068 -2.72552506 -2.66773627 -2.63184211 -2.58410577 
2.31012970e+01 -2.77007335 -2.72655625 -2.66861634 -2.63281827 -2.58497805 
1.87381742e+01 -2.77115602 -2.72757180 -2.66950795 -2.63380181 -2.58585033 
1.51991108e+01 -2.77221305 -2.72851001 -2.67039956 -2.63471298 -2.58672261 
1.23284674e+01 -2.77309784 -2.72939119 -2.67129969 -2.63557010 -2.58759489 
1.00000000e+01 -2.77398262 -2.73039124 -2.67221206 -2.63640913 -2.58846717 
8.11130831e+00 -2.77649609 -2.73297821 -2.67491154 -2.63919799 -2.59135799 
6.57933225e+00 -2.77900955 -2.73556517 -2.67761102 -2.64198685 -2.59424882 
5.33669923e+00 -2.78152301 -2.73815214 -2.68031051 -2.64477571 -2.59713964 
4.32876128e+00 -2.78403648 -2.74073910 -2.68300999 -2.64756457 -2.60003046 
3.51119173e+00 -2.78654994 -2.74332607 -2.68570947 -2.65035343 -2.60292129 
2.84803587e+00 -2.78901215 -2.74574360 -2.68821524 -2.65291604 -2.60549965 
2.31012970e+00 -2.79142312 -2.74810073 -2.69054388 -2.65522925 -2.60776557 
1.87381742e+00 -2.79380741 -2.75047066 -2.69287571 -2.65745845 -2.61003148 
1.51991108e+00 -2.79600928 -2.75272977 -2.69520755 -2.65967270 -2.61229739 
1.23284674e+00 -2.79821114 -2.75496938 -2.69756059 -2.66190145 -2.61456331 
1.00000000e+00 -2.80041301 -2.75720011 -2.69999895 -2.66413652 -2.61682922 
8.11130831e-01 -2.80086331 -2.75763431 -2.70045747 -2.66453862 -2.61722212 
6.57933225e-01 -2.80133241 -2.75805871 -2.70091599 -2.66494071 -2.61761501 
5.33669923e-01 -2.80180151 -2.75848181 -2.70137450 -2.66534281 -2.61800791 
4.32876128e-01 -2.80227061 -2.75890492 -2.70183302 -2.66574490 -2.61840080 
3.51119173e-01 -2.80273970 -2.75932802 -2.70226744 -2.66614700 -2.61879370 
2.84803587e-01 -2.80297311 -2.75954282 -2.70247314 -2.66634706 -2.61898398 
2.31012970e-01 -2.80297083 -2.75954931 -2.70247650 -2.66634509 -2.61897165 
1.87381742e-01 -2.80296855 -2.75955581 -2.70247202 -2.66634312 -2.61895932 
1.51991108e-01 -2.80296627 -2.75956230 -2.70245251 -2.66634115 -2.61894699 
1.23284674e-01 -2.80296399 -2.75956879 -2.70243300 -2.66633918 -2.61893466 
1.00000000e-01 -2.80296171 -2.75957528 -2.70241349 -2.66633721 -2.61892233 
8.11130831e-02 -2.80323311 -2.75988842 -2.70246871 -2.66652950 -2.61898381 
6.57933225e-02 -2.80354321 -2.76017379 -2.70252392 -2.66672635 -2.61904529 
5.33669923e-02 -2.80386876 -2.76045269 -2.70267197 -2.66694299 -2.61910676 
4.32876128e-02 -2.80419430 -2.76073158 -2.70282345 -2.66715964 -2.61916824 
3.51119173e-02 -2.80451985 -2.76101047 -2.70297493 -2.66730302 -2.61922972 
2.84803587e-02 -2.80557314 -2.76204767 -2.70372361 -2.66787625 -2.61969496 
2.31012970e-02 -2.80797997 -2.76402869 -2.70513220 -2.66890782 -2.62056399 
1.87381742e-02 -2.81032810 -2.76628601 -2.70640334 -2.67000448 -2.62143301 
1.51991108e-02 -2.81267714 -2.76844213 -2.70774440 -2.67096668 -2.62230203 
1.23284674e-02 -2.81488519 -2.77031739 -2.70899961 -2.67178238 -2.62317105 
1.00000000e-02 -2.81694683 -2.77254123 -2.71016565 -2.67275893 -2.62404007 
8.11130831e-03 -2.82025184 -2.77640769 -2.71341411 -2.67560667 -2.62681529 
6.57933225e-03 -2.82463491 -2.78069674 -2.71682032 -2.67865793 -2.62959052 
5.33669923e-03 -2.82907942 -2.78446881 -2.71984721 -2.68142989 -2.63188405 
4.32876128e-03 -2.83297281 -2.78821736 -2.72298995 -2.68412289 -2.63416675 
3.51119173e-03 -2.83705923 -2.79192231 -2.72588409 -2.68680097 -2.63641549 
2.84803587e-03 -2.84199546 -2.79719791 -2.73160915 -2.69270798 -2.64280652 
2.31012970e-03 -2.84837384 -2.80386440 -2.74033983 -2.70205233 -2.65288361 
1.87381742e-03 -2.85475223 -2.81095635 -2.74841977 -2.71120482 -2.66295163 
1.51991108e-03 -2.86092781 -2.81825690 -2.75723924 -2.72061793 -2.67301965 
1.23284674e-03 -2.86685270 -2.82523539 -2.76601799 -2.72990802 -2.68319276 
1.00000000e-03 -2.87277760 -2.83205783 -2.77467943 -2.73934900 -2.69473957 
8.11130831e-04 -2.88274097 -2.84205163 -2.78609932 -2.75113242 -2.70688862 
6.57933225e-04 -2.89267933 -2.85150936 -2.79714916 -2.76289809 -2.72016610 
5.33669923e-04 -2.90115545 -2.86042617 -2.80853165 -2.77456244 -2.73287937 
