P (bar) | T: -2σ | T: -1σ  | T: median | T: +1σ | T: +2σ 
1.00000000e+02 1.20360640e+03 1.22440636e+03 1.29847983e+03 1.43414190e+03 1.59949775e+03 
8.11130831e+01 1.20360577e+03 1.22440594e+03 1.29847923e+03 1.43414050e+03 1.59949545e+03 
6.57933225e+01 1.20360356e+03 1.22440449e+03 1.29847712e+03 1.43413559e+03 1.59948736e+03 
5.33669923e+01 1.20359680e+03 1.22440007e+03 1.29847069e+03 1.43412057e+03 1.59946266e+03 
4.32876128e+01 1.20357836e+03 1.22438798e+03 1.29845313e+03 1.43407957e+03 1.59939523e+03 
3.51119173e+01 1.20353304e+03 1.22434925e+03 1.29840996e+03 1.43397879e+03 1.59922949e+03 
2.84803587e+01 1.20347160e+03 1.22424281e+03 1.29831408e+03 1.43375494e+03 1.59886133e+03 
2.31012970e+01 1.20334815e+03 1.22404694e+03 1.29812105e+03 1.43330431e+03 1.59812020e+03 
1.87381742e+01 1.20309344e+03 1.22370548e+03 1.29771523e+03 1.43247979e+03 1.59676417e+03 
1.51991108e+01 1.20253856e+03 1.22325300e+03 1.29714952e+03 1.43110366e+03 1.59450092e+03 
1.23284674e+01 1.20171660e+03 1.22202506e+03 1.29605836e+03 1.42893778e+03 1.59104000e+03 
1.00000000e+01 1.20105129e+03 1.22075641e+03 1.29342545e+03 1.42575076e+03 1.58569570e+03 
8.11130831e+00 1.19928109e+03 1.21889028e+03 1.29102742e+03 1.42189683e+03 1.57868457e+03 
6.57933225e+00 1.19756163e+03 1.21652697e+03 1.28744053e+03 1.41644651e+03 1.57035639e+03 
5.33669923e+00 1.19441841e+03 1.21427142e+03 1.28375473e+03 1.41058038e+03 1.56093869e+03 
4.32876128e+00 1.19159252e+03 1.21135321e+03 1.27964610e+03 1.40289553e+03 1.55057001e+03 
3.51119173e+00 1.18801523e+03 1.20875717e+03 1.27447723e+03 1.39573993e+03 1.54145203e+03 
2.84803587e+00 1.18415330e+03 1.20534589e+03 1.27080386e+03 1.38996040e+03 1.53165584e+03 
2.31012970e+00 1.18024047e+03 1.20301094e+03 1.26647161e+03 1.38347748e+03 1.51956822e+03 
1.87381742e+00 1.17627586e+03 1.20027814e+03 1.26189724e+03 1.37482105e+03 1.50737336e+03 
1.51991108e+00 1.17193609e+03 1.19773933e+03 1.25692829e+03 1.36769524e+03 1.49513189e+03 
1.23284674e+00 1.16765042e+03 1.19481324e+03 1.25230940e+03 1.35941999e+03 1.48287231e+03 
1.00000000e+00 1.16390227e+03 1.19160035e+03 1.24752539e+03 1.35340209e+03 1.47060641e+03 
8.11130831e-01 1.15976678e+03 1.18810964e+03 1.24289704e+03 1.34681730e+03 1.45951090e+03 
6.57933225e-01 1.15473567e+03 1.18452079e+03 1.23919037e+03 1.33897064e+03 1.44662148e+03 
5.33669923e-01 1.15107027e+03 1.18164635e+03 1.23368325e+03 1.33146547e+03 1.43411292e+03 
4.32876128e-01 1.14625778e+03 1.17819884e+03 1.22930943e+03 1.32408367e+03 1.42609579e+03 
3.51119173e-01 1.14091019e+03 1.17498835e+03 1.22451927e+03 1.31819929e+03 1.41692762e+03 
2.84803587e-01 1.13642732e+03 1.17155724e+03 1.22066715e+03 1.31162027e+03 1.40537627e+03 
2.31012970e-01 1.13198818e+03 1.16817346e+03 1.21612107e+03 1.30524042e+03 1.39387954e+03 
1.87381742e-01 1.12754905e+03 1.16452839e+03 1.21188691e+03 1.29838651e+03 1.38301761e+03 
1.51991108e-01 1.12310991e+03 1.16047671e+03 1.20768625e+03 1.29101489e+03 1.37455080e+03 
1.23284674e-01 1.11841566e+03 1.15687449e+03 1.20383200e+03 1.28356612e+03 1.36479336e+03 
1.00000000e-01 1.11423164e+03 1.15316555e+03 1.19943493e+03 1.27553636e+03 1.35597613e+03 
8.11130831e-02 1.10974523e+03 1.14889162e+03 1.19523485e+03 1.26868105e+03 1.34704412e+03 
6.57933225e-02 1.10535338e+03 1.14397644e+03 1.19024453e+03 1.26134655e+03 1.33717300e+03 
5.33669923e-02 1.10069557e+03 1.13949633e+03 1.18627314e+03 1.25377665e+03 1.32663115e+03 
4.32876128e-02 1.09498784e+03 1.13529671e+03 1.18217277e+03 1.24640715e+03 1.31624647e+03 
3.51119173e-02 1.08996811e+03 1.13118431e+03 1.17815903e+03 1.24024039e+03 1.30311104e+03 
2.84803587e-02 1.08540850e+03 1.12714948e+03 1.17374986e+03 1.23350724e+03 1.29776350e+03 
2.31012970e-02 1.08057807e+03 1.12225604e+03 1.16963880e+03 1.22633394e+03 1.29037523e+03 
1.87381742e-02 1.07520774e+03 1.11752782e+03 1.16552293e+03 1.22077127e+03 1.28492179e+03 
1.51991108e-02 1.07076750e+03 1.11255406e+03 1.16090156e+03 1.21480869e+03 1.27604717e+03 
1.23284674e-02 1.06486946e+03 1.10661672e+03 1.15469951e+03 1.21007686e+03 1.26792309e+03 
1.00000000e-02 1.05958251e+03 1.10096105e+03 1.14950603e+03 1.20357746e+03 1.25903374e+03 
8.11130831e-03 1.05301604e+03 1.09575499e+03 1.14419981e+03 1.19794214e+03 1.25143065e+03 
6.57933225e-03 1.04747971e+03 1.09072215e+03 1.13927019e+03 1.19180110e+03 1.24643251e+03 
5.33669923e-03 1.04212497e+03 1.08512645e+03 1.13397651e+03 1.18698643e+03 1.24034614e+03 
4.32876128e-03 1.03698783e+03 1.07941001e+03 1.12862777e+03 1.18320493e+03 1.23640623e+03 
3.51119173e-03 1.03184444e+03 1.07450321e+03 1.12357198e+03 1.17825184e+03 1.22930085e+03 
2.84803587e-03 1.02578837e+03 1.06959391e+03 1.11865969e+03 1.17360852e+03 1.22334376e+03 
2.31012970e-03 1.02034284e+03 1.06420095e+03 1.11303180e+03 1.16958656e+03 1.21867086e+03 
1.87381742e-03 1.01354894e+03 1.05875620e+03 1.10707545e+03 1.16486788e+03 1.21460460e+03 
1.51991108e-03 1.00484213e+03 1.05147251e+03 1.10143786e+03 1.16034059e+03 1.21048775e+03 
1.23284674e-03 9.98817093e+02 1.04465920e+03 1.09562270e+03 1.15781161e+03 1.20624075e+03 
1.00000000e-03 9.92157801e+02 1.03829566e+03 1.08993902e+03 1.15412600e+03 1.20416288e+03 
8.11130831e-04 9.85972976e+02 1.03213304e+03 1.08494972e+03 1.15160915e+03 1.20233196e+03 
6.57933225e-04 9.76066881e+02 1.02624604e+03 1.07992339e+03 1.14955794e+03 1.19814639e+03 
5.33669923e-04 9.68542407e+02 1.01865589e+03 1.07509323e+03 1.14482291e+03 1.19232389e+03 
4.32876128e-04 9.60253417e+02 1.01150133e+03 1.06947238e+03 1.14119713e+03 1.18799387e+03 
3.51119173e-04 9.53493459e+02 1.00458182e+03 1.06475095e+03 1.13761758e+03 1.18528551e+03 
2.84803587e-04 9.44087742e+02 9.97499667e+02 1.05953298e+03 1.13414874e+03 1.18060943e+03 
2.31012970e-04 9.37672011e+02 9.89656425e+02 1.05475833e+03 1.13079273e+03 1.17762481e+03 
1.87381742e-04 9.28032189e+02 9.82153663e+02 1.04972353e+03 1.12793819e+03 1.17649043e+03 
1.51991108e-04 9.20315716e+02 9.74263411e+02 1.04488624e+03 1.12352118e+03 1.17535605e+03 
1.23284674e-04 9.11921736e+02 9.67206755e+02 1.04022517e+03 1.12088957e+03 1.17297852e+03 
1.00000000e-04 9.03496524e+02 9.60889721e+02 1.03559871e+03 1.11783629e+03 1.16965645e+03 
8.11130831e-05 8.94371534e+02 9.53890567e+02 1.03135954e+03 1.11483397e+03 1.16694706e+03 
6.57933225e-05 8.84934385e+02 9.44806823e+02 1.02619941e+03 1.11072580e+03 1.16433314e+03 
5.33669923e-05 8.72592653e+02 9.37532626e+02 1.02037515e+03 1.10784801e+03 1.16359847e+03 
4.32876128e-05 8.61705250e+02 9.29254112e+02 1.01639099e+03 1.10390054e+03 1.16253209e+03 
3.51119173e-05 8.49624872e+02 9.23075254e+02 1.01182491e+03 1.10050069e+03 1.15985258e+03 
2.84803587e-05 8.38000671e+02 9.14568957e+02 1.00700907e+03 1.09737093e+03 1.15793892e+03 
2.31012970e-05 8.27644769e+02 9.08147965e+02 1.00233509e+03 1.09446837e+03 1.15729110e+03 
1.87381742e-05 8.18320471e+02 9.00399812e+02 9.98091528e+02 1.09152673e+03 1.15668119e+03 
1.51991108e-05 8.07721047e+02 8.94694533e+02 9.94337863e+02 1.08882375e+03 1.15612723e+03 
1.23284674e-05 7.99924970e+02 8.90605048e+02 9.90268837e+02 1.08649722e+03 1.15564711e+03 
1.00000000e-05 7.94546844e+02 8.86587581e+02 9.87618679e+02 1.08459665e+03 1.15525424e+03 
8.11130831e-06 7.90431238e+02 8.83387864e+02 9.84793220e+02 1.08329375e+03 1.15495359e+03 
6.57933225e-06 7.87509924e+02 8.81178119e+02 9.83323653e+02 1.08236893e+03 1.15474019e+03 
5.33669923e-06 7.85599557e+02 8.79838309e+02 9.82599303e+02 1.08176415e+03 1.15460064e+03 
4.32876128e-06 7.84454947e+02 8.78897254e+02 9.82165304e+02 1.08150164e+03 1.15451702e+03 
3.51119173e-06 7.83829374e+02 8.78382932e+02 9.81908159e+02 1.08136461e+03 1.15447133e+03 
2.84803587e-06 7.83518613e+02 8.78127436e+02 9.81794684e+02 1.08129654e+03 1.15444862e+03 
2.31012970e-06 7.83378715e+02 8.78012418e+02 9.81743599e+02 1.08126590e+03 1.15443841e+03 
1.87381742e-06 7.83321801e+02 8.77965625e+02 9.81722817e+02 1.08125343e+03 1.15443425e+03 
1.51991108e-06 7.83300951e+02 8.77948484e+02 9.81715203e+02 1.08124887e+03 1.15443272e+03 
1.23284674e-06 7.83294127e+02 8.77942873e+02 9.81712712e+02 1.08124737e+03 1.15443223e+03 
1.00000000e-06 7.83292184e+02 8.77941275e+02 9.81712002e+02 1.08124695e+03 1.15443208e+03 
8.11130831e-07 7.83291760e+02 8.77940927e+02 9.81711847e+02 1.08124685e+03 1.15443205e+03 
6.57933225e-07 7.83291760e+02 8.77940927e+02 9.81711847e+02 1.08124685e+03 1.15443205e+03 
5.33669923e-07 7.83291760e+02 8.77940927e+02 9.81711847e+02 1.08124685e+03 1.15443205e+03 
4.32876128e-07 7.83291760e+02 8.77940927e+02 9.81711847e+02 1.08124685e+03 1.15443205e+03 
3.51119173e-07 7.83291760e+02 8.77940927e+02 9.81711847e+02 1.08124685e+03 1.15443205e+03 
2.84803587e-07 7.83291760e+02 8.77940927e+02 9.81711847e+02 1.08124685e+03 1.15443205e+03 
2.31012970e-07 7.83291760e+02 8.77940927e+02 9.81711847e+02 1.08124685e+03 1.15443205e+03 
1.87381742e-07 7.83291760e+02 8.77940927e+02 9.81711847e+02 1.08124685e+03 1.15443205e+03 
1.51991108e-07 7.83291760e+02 8.77940927e+02 9.81711847e+02 1.08124685e+03 1.15443205e+03 
1.23284674e-07 7.83291760e+02 8.77940927e+02 9.81711847e+02 1.08124685e+03 1.15443205e+03 
1.00000000e-07 7.83291760e+02 8.77940927e+02 9.81711847e+02 1.08124685e+03 1.15443205e+03 
