Chemical species: H2 He H2O CO2 SO2 CO Na H2S K CH4
P (bar) | log_H2: -2σ | log_H2: -1σ | log_H2: median | log_H2: +1σ | log_H2: +2σ 
1.00000000e+02 -0.07858664 -0.07616904 -0.07479534 -0.07383783 -0.07309198 
8.11130831e+01 -0.07854690 -0.07613948 -0.07476931 -0.07381501 -0.07307069 
6.57933225e+01 -0.07850756 -0.07611023 -0.07474316 -0.07379230 -0.07304966 
5.33669923e+01 -0.07846863 -0.07607966 -0.07471674 -0.07376849 -0.07302890 
4.32876128e+01 -0.07843013 -0.07604936 -0.07469012 -0.07374639 -0.07300841 
3.51119173e+01 -0.07839206 -0.07602069 -0.07466467 -0.07372523 -0.07298821 
2.84803587e+01 -0.07836701 -0.07600199 -0.07464727 -0.07371023 -0.07297349 
2.31012970e+01 -0.07835477 -0.07599225 -0.07463776 -0.07370165 -0.07296414 
1.87381742e+01 -0.07834274 -0.07598216 -0.07462845 -0.07369351 -0.07295490 
1.51991108e+01 -0.07833097 -0.07597160 -0.07461917 -0.07368573 -0.07294631 
1.23284674e+01 -0.07831956 -0.07596130 -0.07461017 -0.07367711 -0.07294134 
1.00000000e+01 -0.07830864 -0.07595135 -0.07460142 -0.07366780 -0.07293669 
8.11130831e+00 -0.07828724 -0.07593728 -0.07459170 -0.07366152 -0.07292548 
6.57933225e+00 -0.07826670 -0.07592263 -0.07458370 -0.07365396 -0.07292256 
5.33669923e+00 -0.07824740 -0.07590656 -0.07457552 -0.07364598 -0.07292006 
4.32876128e+00 -0.07822992 -0.07588695 -0.07456576 -0.07364030 -0.07291782 
3.51119173e+00 -0.07821510 -0.07587313 -0.07456234 -0.07363789 -0.07291595 
2.84803587e+00 -0.07807038 -0.07582500 -0.07453275 -0.07361307 -0.07289296 
2.31012970e+00 -0.07774571 -0.07571112 -0.07446361 -0.07357129 -0.07285032 
1.87381742e+00 -0.07756479 -0.07562179 -0.07439537 -0.07351595 -0.07281989 
1.51991108e+00 -0.07738017 -0.07553286 -0.07434221 -0.07347552 -0.07279617 
1.23284674e+00 -0.07721966 -0.07547905 -0.07429504 -0.07344665 -0.07276578 
1.00000000e+00 -0.07711309 -0.07543823 -0.07426735 -0.07341795 -0.07273435 
8.11130831e-01 -0.07663197 -0.07511708 -0.07406736 -0.07326099 -0.07260284 
6.57933225e-01 -0.07631406 -0.07484689 -0.07387869 -0.07308989 -0.07243816 
5.33669923e-01 -0.07601303 -0.07466546 -0.07372897 -0.07293463 -0.07232871 
4.32876128e-01 -0.07584674 -0.07451467 -0.07360733 -0.07283417 -0.07223866 
3.51119173e-01 -0.07576359 -0.07446063 -0.07354340 -0.07276372 -0.07216459 
2.84803587e-01 -0.07551681 -0.07424627 -0.07334866 -0.07259682 -0.07200607 
2.31012970e-01 -0.07507218 -0.07388490 -0.07304340 -0.07233160 -0.07178574 
1.87381742e-01 -0.07479838 -0.07361048 -0.07281142 -0.07213000 -0.07161309 
1.51991108e-01 -0.07457161 -0.07343372 -0.07265969 -0.07200319 -0.07150561 
1.23284674e-01 -0.07451523 -0.07334663 -0.07258432 -0.07195489 -0.07146497 
1.00000000e-01 -0.07452098 -0.07336040 -0.07260158 -0.07197554 -0.07149429 
8.11130831e-02 -0.07425989 -0.07308188 -0.07235759 -0.07176566 -0.07131884 
6.57933225e-02 -0.07414383 -0.07289595 -0.07217982 -0.07162362 -0.07118872 
5.33669923e-02 -0.07409369 -0.07279315 -0.07207239 -0.07154825 -0.07111689 
4.32876128e-02 -0.07405340 -0.07274969 -0.07202851 -0.07150284 -0.07110275 
3.51119173e-02 -0.07408921 -0.07276757 -0.07203433 -0.07151281 -0.07111997 
2.84803587e-02 -0.07411024 -0.07275816 -0.07201242 -0.07150526 -0.07111491 
2.31012970e-02 -0.07411229 -0.07270328 -0.07196611 -0.07147382 -0.07106622 
1.87381742e-02 -0.07412159 -0.07270611 -0.07194865 -0.07145791 -0.07106092 
1.51991108e-02 -0.07414701 -0.07274142 -0.07196918 -0.07146661 -0.07106404 
1.23284674e-02 -0.07419350 -0.07278146 -0.07200387 -0.07149624 -0.07109269 
1.00000000e-02 -0.07424550 -0.07283419 -0.07205456 -0.07154021 -0.07113613 
8.11130831e-03 -0.07425150 -0.07284683 -0.07206485 -0.07154405 -0.07113389 
6.57933225e-03 -0.07428092 -0.07286687 -0.07207878 -0.07155586 -0.07114543 
5.33669923e-03 -0.07430865 -0.07288891 -0.07209900 -0.07157432 -0.07116406 
4.32876128e-03 -0.07432188 -0.07291243 -0.07212163 -0.07159648 -0.07118443 
3.51119173e-03 -0.07435102 -0.07293689 -0.07214864 -0.07161829 -0.07120689 
2.84803587e-03 -0.07437434 -0.07296330 -0.07217286 -0.07164105 -0.07122554 
2.31012970e-03 -0.07439154 -0.07297619 -0.07218706 -0.07166111 -0.07123569 
1.87381742e-03 -0.07440913 -0.07299205 -0.07220161 -0.07167926 -0.07124607 
1.51991108e-03 -0.07442707 -0.07300686 -0.07221834 -0.07169780 -0.07126273 
1.23284674e-03 -0.07444535 -0.07302785 -0.07223692 -0.07171680 -0.07127480 
1.00000000e-03 -0.07446473 -0.07305315 -0.07225985 -0.07173785 -0.07129223 
8.11130831e-04 -0.07447763 -0.07306779 -0.07227490 -0.07175010 -0.07130308 
6.57933225e-04 -0.07449071 -0.07308363 -0.07228647 -0.07175895 -0.07130991 
5.33669923e-04 -0.07450397 -0.07309836 -0.07230021 -0.07176834 -0.07131993 
4.32876128e-04 -0.07451796 -0.07311443 -0.07231813 -0.07177859 -0.07133056 
3.51119173e-04 -0.07453965 -0.07313713 -0.07233241 -0.07179194 -0.07134498 
2.84803587e-04 -0.07455666 -0.07315078 -0.07234682 -0.07179861 -0.07135771 
2.31012970e-04 -0.07457082 -0.07315725 -0.07235369 -0.07181092 -0.07136335 
1.87381742e-04 -0.07459550 -0.07316950 -0.07236070 -0.07181424 -0.07136905 
1.51991108e-04 -0.07460135 -0.07318029 -0.07236681 -0.07182074 -0.07137480 
1.23284674e-04 -0.07460724 -0.07319131 -0.07237624 -0.07182731 -0.07137793 
1.00000000e-04 -0.07461861 -0.07320434 -0.07238577 -0.07183245 -0.07138645 
8.11130831e-05 -0.07462431 -0.07321160 -0.07238985 -0.07183646 -0.07138883 
6.57933225e-05 -0.07462814 -0.07321931 -0.07239395 -0.07183891 -0.07139070 
5.33669923e-05 -0.07463047 -0.07322475 -0.07239808 -0.07184088 -0.07139229 
4.32876128e-05 -0.07463280 -0.07323147 -0.07240203 -0.07184302 -0.07139387 
3.51119173e-05 -0.07463514 -0.07323635 -0.07240478 -0.07184700 -0.07139546 
2.84803587e-05 -0.07463907 -0.07323874 -0.07240689 -0.07184868 -0.07139674 
2.31012970e-05 -0.07464220 -0.07324056 -0.07240836 -0.07184971 -0.07139769 
1.87381742e-05 -0.07464534 -0.07324239 -0.07240983 -0.07185105 -0.07139865 
1.51991108e-05 -0.07464848 -0.07324421 -0.07241130 -0.07185322 -0.07139960 
1.23284674e-05 -0.07465164 -0.07324605 -0.07241286 -0.07185461 -0.07140056 
1.00000000e-05 -0.07465481 -0.07324788 -0.07241477 -0.07185601 -0.07140152 
8.11130831e-06 -0.07465655 -0.07324916 -0.07241583 -0.07185684 -0.07140226 
6.57933225e-06 -0.07465830 -0.07325045 -0.07241689 -0.07185768 -0.07140299 
5.33669923e-06 -0.07466005 -0.07325173 -0.07241795 -0.07185970 -0.07140373 
4.32876128e-06 -0.07466180 -0.07325302 -0.07241902 -0.07186218 -0.07140447 
3.51119173e-06 -0.07466355 -0.07325431 -0.07242008 -0.07186306 -0.07140520 
2.84803587e-06 -0.07466510 -0.07325544 -0.07242106 -0.07186389 -0.07140593 
2.31012970e-06 -0.07466643 -0.07325640 -0.07242194 -0.07186466 -0.07140666 
1.87381742e-06 -0.07466777 -0.07325738 -0.07242282 -0.07186543 -0.07140738 
1.51991108e-06 -0.07466910 -0.07325835 -0.07242370 -0.07186621 -0.07140810 
1.23284674e-06 -0.07467044 -0.07325932 -0.07242459 -0.07186698 -0.07140883 
1.00000000e-06 -0.07467178 -0.07326029 -0.07242547 -0.07186775 -0.07140955 
8.11130831e-07 -0.07467316 -0.07326107 -0.07242649 -0.07186856 -0.07141030 
6.57933225e-07 -0.07467453 -0.07326184 -0.07242751 -0.07186936 -0.07141105 
5.33669923e-07 -0.07467591 -0.07326262 -0.07242853 -0.07187017 -0.07141180 
4.32876128e-07 -0.07467729 -0.07326369 -0.07242956 -0.07187098 -0.07141256 
3.51119173e-07 -0.07467868 -0.07326491 -0.07243058 -0.07187179 -0.07141331 
2.84803587e-07 -0.07468000 -0.07326625 -0.07243160 -0.07187248 -0.07141392 
2.31012970e-07 -0.07468125 -0.07326772 -0.07243260 -0.07187311 -0.07141437 
1.87381742e-07 -0.07468251 -0.07326908 -0.07243360 -0.07187400 -0.07141483 
1.51991108e-07 -0.07468377 -0.07327023 -0.07243461 -0.07187489 -0.07141598 
1.23284674e-07 -0.07468503 -0.07327137 -0.07243562 -0.07187578 -0.07141713 
1.00000000e-07 -0.07468630 -0.07327252 -0.07243663 -0.07187667 -0.07141828 
P (bar) | log_He: -2σ | log_He: -1σ | log_He: median | log_He: +1σ | log_He: +2σ 
1.00000000e+02 -0.84813772 -0.84572012 -0.84434642 -0.84338891 -0.84264305 
8.11130831e+01 -0.84809798 -0.84569056 -0.84432039 -0.84336609 -0.84262177 
6.57933225e+01 -0.84805864 -0.84566131 -0.84429424 -0.84334338 -0.84260074 
5.33669923e+01 -0.84801971 -0.84563074 -0.84426782 -0.84331957 -0.84257998 
4.32876128e+01 -0.84798120 -0.84560044 -0.84424120 -0.84329747 -0.84255949 
3.51119173e+01 -0.84794314 -0.84557177 -0.84421575 -0.84327631 -0.84253928 
2.84803587e+01 -0.84791809 -0.84555307 -0.84419835 -0.84326131 -0.84252457 
2.31012970e+01 -0.84790585 -0.84554333 -0.84418884 -0.84325273 -0.84251522 
1.87381742e+01 -0.84789382 -0.84553323 -0.84417953 -0.84324459 -0.84250598 
1.51991108e+01 -0.84788205 -0.84552268 -0.84417025 -0.84323681 -0.84249739 
1.23284674e+01 -0.84787064 -0.84551238 -0.84416125 -0.84322819 -0.84249242 
1.00000000e+01 -0.84785972 -0.84550243 -0.84415250 -0.84321888 -0.84248777 
8.11130831e+00 -0.84783831 -0.84548836 -0.84414278 -0.84321260 -0.84247656 
6.57933225e+00 -0.84781778 -0.84547371 -0.84413478 -0.84320504 -0.84247364 
5.33669923e+00 -0.84779848 -0.84545764 -0.84412660 -0.84319706 -0.84247114 
4.32876128e+00 -0.84778100 -0.84543803 -0.84411683 -0.84319138 -0.84246890 
3.51119173e+00 -0.84776618 -0.84542421 -0.84411342 -0.84318897 -0.84246703 
2.84803587e+00 -0.84762145 -0.84537608 -0.84408383 -0.84316415 -0.84244404 
2.31012970e+00 -0.84729679 -0.84526219 -0.84401469 -0.84312236 -0.84240140 
1.87381742e+00 -0.84711587 -0.84517287 -0.84394645 -0.84306703 -0.84237096 
1.51991108e+00 -0.84693125 -0.84508394 -0.84389328 -0.84302660 -0.84234725 
1.23284674e+00 -0.84677073 -0.84503013 -0.84384612 -0.84299772 -0.84231685 
1.00000000e+00 -0.84666417 -0.84498931 -0.84381843 -0.84296903 -0.84228543 
8.11130831e-01 -0.84618305 -0.84466816 -0.84361844 -0.84281206 -0.84215392 
6.57933225e-01 -0.84586514 -0.84439797 -0.84342977 -0.84264096 -0.84198924 
5.33669923e-01 -0.84556410 -0.84421653 -0.84328005 -0.84248571 -0.84187979 
4.32876128e-01 -0.84539782 -0.84406575 -0.84315841 -0.84238525 -0.84178974 
3.51119173e-01 -0.84531467 -0.84401171 -0.84309447 -0.84231480 -0.84171567 
2.84803587e-01 -0.84506788 -0.84379735 -0.84289973 -0.84214790 -0.84155715 
2.31012970e-01 -0.84462326 -0.84343598 -0.84259448 -0.84188268 -0.84133681 
1.87381742e-01 -0.84434946 -0.84316156 -0.84236250 -0.84168108 -0.84116417 
1.51991108e-01 -0.84412269 -0.84298480 -0.84221077 -0.84155427 -0.84105669 
1.23284674e-01 -0.84406631 -0.84289770 -0.84213540 -0.84150596 -0.84101605 
1.00000000e-01 -0.84407206 -0.84291147 -0.84215266 -0.84152662 -0.84104537 
8.11130831e-02 -0.84381097 -0.84263296 -0.84190867 -0.84131674 -0.84086992 
6.57933225e-02 -0.84369491 -0.84244703 -0.84173090 -0.84117470 -0.84073980 
5.33669923e-02 -0.84364477 -0.84234423 -0.84162347 -0.84109933 -0.84066797 
4.32876128e-02 -0.84360448 -0.84230077 -0.84157958 -0.84105392 -0.84065383 
3.51119173e-02 -0.84364029 -0.84231865 -0.84158541 -0.84106389 -0.84067105 
2.84803587e-02 -0.84366132 -0.84230924 -0.84156350 -0.84105634 -0.84066599 
2.31012970e-02 -0.84366337 -0.84225436 -0.84151719 -0.84102490 -0.84061730 
1.87381742e-02 -0.84367267 -0.84225719 -0.84149973 -0.84100899 -0.84061200 
1.51991108e-02 -0.84369809 -0.84229250 -0.84152025 -0.84101769 -0.84061512 
1.23284674e-02 -0.84374458 -0.84233254 -0.84155495 -0.84104732 -0.84064377 
1.00000000e-02 -0.84379658 -0.84238527 -0.84160564 -0.84109129 -0.84068721 
8.11130831e-03 -0.84380258 -0.84239791 -0.84161593 -0.84109513 -0.84068497 
6.57933225e-03 -0.84383199 -0.84241795 -0.84162986 -0.84110694 -0.84069651 
5.33669923e-03 -0.84385973 -0.84243999 -0.84165008 -0.84112540 -0.84071513 
4.32876128e-03 -0.84387296 -0.84246351 -0.84167271 -0.84114756 -0.84073551 
3.51119173e-03 -0.84390210 -0.84248797 -0.84169971 -0.84116937 -0.84075796 
2.84803587e-03 -0.84392542 -0.84251438 -0.84172394 -0.84119213 -0.84077662 
2.31012970e-03 -0.84394262 -0.84252726 -0.84173813 -0.84121219 -0.84078676 
1.87381742e-03 -0.84396021 -0.84254313 -0.84175269 -0.84123034 -0.84079715 
1.51991108e-03 -0.84397815 -0.84255794 -0.84176942 -0.84124888 -0.84081381 
1.23284674e-03 -0.84399643 -0.84257893 -0.84178800 -0.84126788 -0.84082588 
1.00000000e-03 -0.84401581 -0.84260423 -0.84181093 -0.84128893 -0.84084331 
8.11130831e-04 -0.84402870 -0.84261887 -0.84182598 -0.84130117 -0.84085416 
6.57933225e-04 -0.84404179 -0.84263471 -0.84183755 -0.84131003 -0.84086099 
5.33669923e-04 -0.84405505 -0.84264944 -0.84185128 -0.84131942 -0.84087101 
4.32876128e-04 -0.84406904 -0.84266551 -0.84186921 -0.84132967 -0.84088164 
3.51119173e-04 -0.84409073 -0.84268821 -0.84188349 -0.84134302 -0.84089605 
2.84803587e-04 -0.84410774 -0.84270185 -0.84189790 -0.84134969 -0.84090878 
2.31012970e-04 -0.84412190 -0.84270833 -0.84190477 -0.84136200 -0.84091443 
1.87381742e-04 -0.84414658 -0.84272057 -0.84191177 -0.84136532 -0.84092013 
1.51991108e-04 -0.84415242 -0.84273137 -0.84191789 -0.84137182 -0.84092588 
1.23284674e-04 -0.84415832 -0.84274238 -0.84192732 -0.84137839 -0.84092901 
1.00000000e-04 -0.84416969 -0.84275542 -0.84193684 -0.84138352 -0.84093753 
8.11130831e-05 -0.84417539 -0.84276267 -0.84194093 -0.84138754 -0.84093991 
6.57933225e-05 -0.84417922 -0.84277039 -0.84194503 -0.84138999 -0.84094178 
5.33669923e-05 -0.84418155 -0.84277583 -0.84194915 -0.84139195 -0.84094336 
4.32876128e-05 -0.84418388 -0.84278255 -0.84195311 -0.84139410 -0.84094495 
3.51119173e-05 -0.84418622 -0.84278743 -0.84195586 -0.84139808 -0.84094654 
2.84803587e-05 -0.84419014 -0.84278982 -0.84195797 -0.84139976 -0.84094781 
2.31012970e-05 -0.84419327 -0.84279164 -0.84195944 -0.84140079 -0.84094877 
1.87381742e-05 -0.84419641 -0.84279346 -0.84196090 -0.84140213 -0.84094972 
1.51991108e-05 -0.84419956 -0.84279529 -0.84196238 -0.84140430 -0.84095068 
1.23284674e-05 -0.84420272 -0.84279713 -0.84196394 -0.84140569 -0.84095164 
1.00000000e-05 -0.84420589 -0.84279896 -0.84196585 -0.84140708 -0.84095260 
8.11130831e-06 -0.84420763 -0.84280024 -0.84196691 -0.84140792 -0.84095334 
6.57933225e-06 -0.84420938 -0.84280152 -0.84196797 -0.84140876 -0.84095407 
5.33669923e-06 -0.84421113 -0.84280281 -0.84196903 -0.84141078 -0.84095481 
4.32876128e-06 -0.84421288 -0.84280410 -0.84197010 -0.84141326 -0.84095554 
3.51119173e-06 -0.84421463 -0.84280539 -0.84197116 -0.84141414 -0.84095628 
2.84803587e-06 -0.84421618 -0.84280651 -0.84197213 -0.84141497 -0.84095701 
2.31012970e-06 -0.84421751 -0.84280748 -0.84197302 -0.84141574 -0.84095773 
1.87381742e-06 -0.84421885 -0.84280845 -0.84197390 -0.84141651 -0.84095846 
1.51991108e-06 -0.84422018 -0.84280943 -0.84197478 -0.84141728 -0.84095918 
1.23284674e-06 -0.84422152 -0.84281040 -0.84197566 -0.84141806 -0.84095991 
1.00000000e-06 -0.84422286 -0.84281137 -0.84197655 -0.84141883 -0.84096063 
8.11130831e-07 -0.84422424 -0.84281215 -0.84197757 -0.84141964 -0.84096138 
6.57933225e-07 -0.84422561 -0.84281292 -0.84197859 -0.84142044 -0.84096213 
5.33669923e-07 -0.84422699 -0.84281370 -0.84197961 -0.84142125 -0.84096288 
4.32876128e-07 -0.84422837 -0.84281477 -0.84198064 -0.84142206 -0.84096364 
3.51119173e-07 -0.84422976 -0.84281599 -0.84198166 -0.84142286 -0.84096439 
2.84803587e-07 -0.84423107 -0.84281733 -0.84198267 -0.84142355 -0.84096500 
2.31012970e-07 -0.84423233 -0.84281880 -0.84198368 -0.84142419 -0.84096545 
1.87381742e-07 -0.84423359 -0.84282016 -0.84198468 -0.84142508 -0.84096591 
1.51991108e-07 -0.84423485 -0.84282131 -0.84198569 -0.84142596 -0.84096706 
1.23284674e-07 -0.84423611 -0.84282245 -0.84198670 -0.84142685 -0.84096820 
1.00000000e-07 -0.84423738 -0.84282360 -0.84198771 -0.84142775 -0.84096935 
P (bar) | log_H2O: -2σ | log_H2O: -1σ | log_H2O: median | log_H2O: +1σ | log_H2O: +2σ 
1.00000000e+02 -2.27586201 -2.21723205 -2.15658286 -2.07936869 -1.97767410 
8.11130831e+01 -2.27907219 -2.22029860 -2.15981419 -2.08282193 -1.97978774 
6.57933225e+01 -2.28228237 -2.22343075 -2.16297806 -2.08606452 -1.98190138 
5.33669923e+01 -2.28549255 -2.22655115 -2.16622495 -2.08921645 -1.98401502 
4.32876128e+01 -2.28870273 -2.22997302 -2.16939954 -2.09224055 -1.98612866 
3.51119173e+01 -2.29191291 -2.23329338 -2.17222268 -2.09520759 -1.98824230 
2.84803587e+01 -2.29419148 -2.23554511 -2.17408997 -2.09700632 -1.98964848 
2.31012970e+01 -2.29553844 -2.23681413 -2.17537863 -2.09804899 -1.99034721 
1.87381742e+01 -2.29669261 -2.23803577 -2.17666816 -2.09882791 -1.99104594 
1.51991108e+01 -2.29794988 -2.23925741 -2.17779338 -2.09961151 -1.99174466 
1.23284674e+01 -2.29937526 -2.24061576 -2.17904719 -2.10040738 -1.99244339 
1.00000000e+01 -2.30080063 -2.24195462 -2.18035348 -2.10124919 -1.99314212 
8.11130831e+00 -2.30145733 -2.24261988 -2.18132110 -2.10342288 -1.99645981 
6.57933225e+00 -2.30211403 -2.24345791 -2.18226530 -2.10508922 -1.99977750 
5.33669923e+00 -2.30318758 -2.24427153 -2.18320950 -2.10637621 -2.00309518 
4.32876128e+00 -2.30394135 -2.24498225 -2.18436430 -2.10721004 -2.00667644 
3.51119173e+00 -2.30469512 -2.24573936 -2.18507873 -2.10841005 -2.01070049 
2.84803587e+00 -2.30706091 -2.24862568 -2.18827176 -2.11201078 -2.02068303 
2.31012970e+00 -2.31238703 -2.25496513 -2.19271349 -2.11892581 -2.03409733 
1.87381742e+00 -2.31588682 -2.26127814 -2.19682135 -2.12705773 -2.04526851 
1.51991108e+00 -2.32233670 -2.26722299 -2.20195675 -2.13634410 -2.05589771 
1.23284674e+00 -2.32803520 -2.27328559 -2.20851472 -2.14515278 -2.06540075 
1.00000000e+00 -2.33435495 -2.27910561 -2.21426850 -2.14978687 -2.07523684 
8.11130831e-01 -2.35988420 -2.30047519 -2.23460239 -2.17102941 -2.09687716 
6.57933225e-01 -2.38691307 -2.32337738 -2.25869173 -2.19342792 -2.11984409 
5.33669923e-01 -2.41140303 -2.35001362 -2.28085043 -2.21459520 -2.14029770 
4.32876128e-01 -2.44861551 -2.37634233 -2.30281133 -2.23086017 -2.15107692 
3.51119173e-01 -2.49994095 -2.40579088 -2.32303318 -2.24477961 -2.16291542 
2.84803587e-01 -2.54609609 -2.44040015 -2.35466177 -2.27531876 -2.19348936 
2.31012970e-01 -2.58712429 -2.48406821 -2.39602250 -2.31758544 -2.24161570 
1.87381742e-01 -2.62892619 -2.52841764 -2.43819861 -2.35936495 -2.28291634 
1.51991108e-01 -2.68207613 -2.57094071 -2.48027767 -2.39991127 -2.32079716 
1.23284674e-01 -2.73133368 -2.61441079 -2.52516389 -2.44252935 -2.35964237 
1.00000000e-01 -2.77986427 -2.65873625 -2.56627108 -2.48323278 -2.39519747 
8.11130831e-02 -2.79677277 -2.69836142 -2.61781403 -2.54263750 -2.45325953 
6.57933225e-02 -2.81724719 -2.73870999 -2.66705493 -2.60001290 -2.51048664 
5.33669923e-02 -2.84302913 -2.77727959 -2.71743677 -2.65647765 -2.56187130 
4.32876128e-02 -2.87535098 -2.81745542 -2.76557171 -2.71465570 -2.61600623 
3.51119173e-02 -2.90847851 -2.85810729 -2.81485997 -2.76958150 -2.66639231 
2.84803587e-02 -2.93388978 -2.88733990 -2.84969334 -2.80564602 -2.70561209 
2.31012970e-02 -2.94313941 -2.90121371 -2.86689538 -2.82194346 -2.72898279 
1.87381742e-02 -2.95886719 -2.91826997 -2.88447520 -2.83819364 -2.74157964 
1.51991108e-02 -2.97565900 -2.93673115 -2.90246933 -2.85398078 -2.76281000 
1.23284674e-02 -2.99283513 -2.95515024 -2.92031172 -2.86484062 -2.77753520 
1.00000000e-02 -3.01126212 -2.97438549 -2.93679888 -2.87560209 -2.79500890 
8.11130831e-03 -3.00640754 -2.96607764 -2.92794649 -2.86660294 -2.78531873 
6.57933225e-03 -3.00126565 -2.95905085 -2.91827250 -2.85791276 -2.78038312 
5.33669923e-03 -2.99565734 -2.95115969 -2.90912728 -2.85000834 -2.77089095 
4.32876128e-03 -2.99052057 -2.94327783 -2.90021295 -2.84036161 -2.76283346 
3.51119173e-03 -2.98646187 -2.93619503 -2.89095477 -2.83040044 -2.75271286 
2.84803587e-03 -2.97886329 -2.92709812 -2.87962308 -2.81946991 -2.74350201 
2.31012970e-03 -2.97230812 -2.91751701 -2.86679356 -2.80643992 -2.73084412 
1.87381742e-03 -2.96405264 -2.90684771 -2.85453724 -2.79393687 -2.71993466 
1.51991108e-03 -2.95693349 -2.89639212 -2.84283876 -2.78173788 -2.70809079 
1.23284674e-03 -2.94834454 -2.88649273 -2.83186919 -2.76888139 -2.69483038 
1.00000000e-03 -2.94069945 -2.87707340 -2.82013485 -2.75620510 -2.68119471 
8.11130831e-04 -2.93724399 -2.87064957 -2.81205618 -2.74628825 -2.67117743 
6.57933225e-04 -2.93317623 -2.86477481 -2.80474203 -2.73721749 -2.66059127 
5.33669923e-04 -2.92829083 -2.85916193 -2.79712709 -2.72752500 -2.65053562 
