P (bar) | T: -2σ | T: -1σ  | T: median | T: +1σ | T: +2σ 
1.00000000e+02 4.32265073e+02 7.64951904e+02 1.13989674e+03 1.44850146e+03 1.80376198e+03 
8.11130831e+01 4.32266607e+02 7.64952471e+02 1.13989649e+03 1.44849951e+03 1.80375998e+03 
6.57933225e+01 4.32271994e+02 7.64954463e+02 1.13989564e+03 1.44849266e+03 1.80375294e+03 
5.33669923e+01 4.32288452e+02 7.64960551e+02 1.13989305e+03 1.44847174e+03 1.80373145e+03 
4.32876128e+01 4.32333378e+02 7.64977168e+02 1.13988596e+03 1.44841462e+03 1.80367279e+03 
3.51119173e+01 4.32443809e+02 7.65018014e+02 1.13986852e+03 1.44827423e+03 1.80352859e+03 
2.84803587e+01 4.32689115e+02 7.65108747e+02 1.13982981e+03 1.44796237e+03 1.80320827e+03 
2.31012970e+01 4.33182924e+02 7.65333114e+02 1.13975187e+03 1.44733458e+03 1.80256345e+03 
1.87381742e+01 4.34086446e+02 7.65752670e+02 1.13960412e+03 1.44622353e+03 1.80138363e+03 
1.51991108e+01 4.35594434e+02 7.66452913e+02 1.13897966e+03 1.44452572e+03 1.79941449e+03 
1.23284674e+01 4.37900434e+02 7.67523717e+02 1.13723567e+03 1.44192944e+03 1.79640331e+03 
1.00000000e+01 4.41149173e+02 7.69329005e+02 1.13670895e+03 1.43821062e+03 1.79216110e+03 
8.11130831e+00 4.45394509e+02 7.71749895e+02 1.13488214e+03 1.43343260e+03 1.78661753e+03 
6.57933225e+00 4.50582584e+02 7.74365827e+02 1.13161904e+03 1.42806485e+03 1.77984292e+03 
5.33669923e+00 4.57155056e+02 7.76376241e+02 1.12916162e+03 1.42093381e+03 1.77202628e+03 
4.32876128e+00 4.65936559e+02 7.77579480e+02 1.12700607e+03 1.41471043e+03 1.76290478e+03 
3.51119173e+00 4.75263979e+02 7.78857520e+02 1.12351651e+03 1.40682507e+03 1.75195809e+03 
2.84803587e+00 4.84755238e+02 7.80652214e+02 1.11990307e+03 1.39826131e+03 1.73629335e+03 
2.31012970e+00 4.92721769e+02 7.83126564e+02 1.11708260e+03 1.38930437e+03 1.72033713e+03 
1.87381742e+00 5.00758975e+02 7.86118464e+02 1.11250908e+03 1.38082979e+03 1.70423936e+03 
1.51991108e+00 5.08826897e+02 7.89828927e+02 1.10878156e+03 1.37184210e+03 1.68808006e+03 
1.23284674e+00 5.16543853e+02 7.93706149e+02 1.10405070e+03 1.36365943e+03 1.67189685e+03 
1.00000000e+00 5.24990788e+02 7.97809031e+02 1.10131357e+03 1.35483365e+03 1.65570530e+03 
8.11130831e-01 5.33076107e+02 8.00753575e+02 1.09833910e+03 1.34572404e+03 1.63951117e+03 
6.57933225e-01 5.41161786e+02 8.01955225e+02 1.09490340e+03 1.33655141e+03 1.62331631e+03 
5.33669923e-01 5.49247465e+02 8.05543759e+02 1.09058420e+03 1.32599158e+03 1.60712145e+03 
4.32876128e-01 5.58133505e+02 8.11284517e+02 1.08727175e+03 1.31805270e+03 1.59092659e+03 
3.51119173e-01 5.67723422e+02 8.15099091e+02 1.08310609e+03 1.31126052e+03 1.57473173e+03 
2.84803587e-01 5.77313338e+02 8.18944199e+02 1.08026927e+03 1.30269420e+03 1.55904278e+03 
2.31012970e-01 5.86439871e+02 8.21960527e+02 1.07527471e+03 1.29294429e+03 1.54677772e+03 
1.87381742e-01 5.94030452e+02 8.24937294e+02 1.07142798e+03 1.28336140e+03 1.53379602e+03 
1.51991108e-01 6.01621032e+02 8.26958682e+02 1.06990417e+03 1.27430583e+03 1.52224759e+03 
1.23284674e-01 6.09211613e+02 8.28718875e+02 1.06717220e+03 1.26701719e+03 1.50998253e+03 
1.00000000e-01 6.16802194e+02 8.31061874e+02 1.06227739e+03 1.25886647e+03 1.49537387e+03 
8.11130831e-02 6.24392775e+02 8.35463520e+02 1.05657655e+03 1.24899266e+03 1.47555150e+03 
6.57933225e-02 6.34065611e+02 8.40016310e+02 1.05274938e+03 1.24075348e+03 1.46250299e+03 
5.33669923e-02 6.43816192e+02 8.42584438e+02 1.04901366e+03 1.23386598e+03 1.44980248e+03 
4.32876128e-02 6.51272599e+02 8.44029285e+02 1.04543953e+03 1.22539023e+03 1.43710198e+03 
3.51119173e-02 6.58338937e+02 8.45687968e+02 1.04293537e+03 1.21499573e+03 1.42362128e+03 
2.84803587e-02 6.63611527e+02 8.48169571e+02 1.03869432e+03 1.20433743e+03 1.41170098e+03 
2.31012970e-02 6.70532654e+02 8.51614471e+02 1.03488457e+03 1.19635913e+03 1.39900047e+03 
1.87381742e-02 6.77526841e+02 8.52643567e+02 1.03211408e+03 1.19027112e+03 1.38436681e+03 
1.51991108e-02 6.86017329e+02 8.55439566e+02 1.02972676e+03 1.18369585e+03 1.36836923e+03 
1.23284674e-02 6.94789692e+02 8.58384779e+02 1.02537743e+03 1.17480598e+03 1.35237164e+03 
1.00000000e-02 7.00298584e+02 8.60004289e+02 1.02213842e+03 1.16883695e+03 1.33818387e+03 
8.11130831e-03 7.08430792e+02 8.62900941e+02 1.02000415e+03 1.16322386e+03 1.32915250e+03 
6.57933225e-03 7.15479745e+02 8.65008193e+02 1.01588215e+03 1.15617181e+03 1.32012113e+03 
5.33669923e-03 7.19889178e+02 8.68036317e+02 1.01227103e+03 1.14821893e+03 1.31108975e+03 
4.32876128e-03 7.28255233e+02 8.67649444e+02 1.00879112e+03 1.14183132e+03 1.30205838e+03 
3.51119173e-03 7.33513891e+02 8.69394584e+02 1.00336502e+03 1.13475779e+03 1.29348191e+03 
2.84803587e-03 7.39127572e+02 8.70758995e+02 1.00152089e+03 1.12765176e+03 1.28806418e+03 
2.31012970e-03 7.47039303e+02 8.71391012e+02 9.97562814e+02 1.12055180e+03 1.27484127e+03 
1.87381742e-03 7.53082150e+02 8.71053073e+02 9.92305328e+02 1.11316798e+03 1.26468124e+03 
1.51991108e-03 7.59124996e+02 8.73150384e+02 9.88061785e+02 1.10569346e+03 1.25241618e+03 
1.23284674e-03 7.65167843e+02 8.76547226e+02 9.85671915e+02 1.10024890e+03 1.24015111e+03 
1.00000000e-03 7.71210690e+02 8.74731530e+02 9.81172672e+02 1.09495559e+03 1.22788605e+03 
8.11130831e-04 7.75081926e+02 8.74215716e+02 9.76117316e+02 1.08949310e+03 1.21562099e+03 
6.57933225e-04 7.80818076e+02 8.73616886e+02 9.73839232e+02 1.08565341e+03 1.20290360e+03 
5.33669923e-04 7.89339230e+02 8.74155406e+02 9.72070698e+02 1.07935170e+03 1.19177547e+03 
4.32876128e-04 7.95382076e+02 8.72546494e+02 9.67049196e+02 1.07496865e+03 1.18529587e+03 
3.51119173e-04 7.99234232e+02 8.72950473e+02 9.64071652e+02 1.07177317e+03 1.18043755e+03 
2.84803587e-04 8.04592902e+02 8.69299721e+02 9.59919307e+02 1.06455469e+03 1.17478017e+03 
2.31012970e-04 8.07384119e+02 8.66369900e+02 9.57840114e+02 1.05950005e+03 1.16952232e+03 
1.87381742e-04 8.08425670e+02 8.64541843e+02 9.52130950e+02 1.05458875e+03 1.16392350e+03 
1.51991108e-04 8.07703482e+02 8.62130446e+02 9.49895653e+02 1.05292507e+03 1.16111193e+03 
1.23284674e-04 8.05867776e+02 8.59723274e+02 9.45458513e+02 1.05030812e+03 1.15427067e+03 
1.00000000e-04 8.05968725e+02 8.57491562e+02 9.42993557e+02 1.04775040e+03 1.15541530e+03 
8.11130831e-05 7.98864085e+02 8.53909280e+02 9.40292669e+02 1.04411613e+03 1.15384362e+03 
6.57933225e-05 7.93291040e+02 8.50574182e+02 9.37068450e+02 1.03980377e+03 1.15505243e+03 
5.33669923e-05 7.85260102e+02 8.47628852e+02 9.33865529e+02 1.03728583e+03 1.14904002e+03 
4.32876128e-05 7.77609115e+02 8.44599876e+02 9.30928875e+02 1.03490992e+03 1.15378820e+03 
3.51119173e-05 7.69225656e+02 8.40192422e+02 9.27482419e+02 1.03177755e+03 1.15653761e+03 
2.84803587e-05 7.61165453e+02 8.34402279e+02 9.23125205e+02 1.03111847e+03 1.15381860e+03 
2.31012970e-05 7.52335964e+02 8.29698336e+02 9.20649471e+02 1.03047746e+03 1.14605259e+03 
1.87381742e-05 7.45072487e+02 8.26127832e+02 9.19510532e+02 1.02896422e+03 1.15255412e+03 
1.51991108e-05 7.37222353e+02 8.22141898e+02 9.16934133e+02 1.02856581e+03 1.15695128e+03 
1.23284674e-05 7.29683832e+02 8.19073107e+02 9.16491472e+02 1.02913596e+03 1.16020337e+03 
1.00000000e-05 7.24521816e+02 8.15577723e+02 9.15040732e+02 1.02854234e+03 1.16389288e+03 
8.11130831e-06 7.19812295e+02 8.13250151e+02 9.14340523e+02 1.02939246e+03 1.16525978e+03 
6.57933225e-06 7.17082110e+02 8.11914453e+02 9.13375492e+02 1.02956854e+03 1.16511336e+03 
5.33669923e-06 7.14714312e+02 8.10426588e+02 9.12324050e+02 1.03007513e+03 1.16446672e+03 
4.32876128e-06 7.13380060e+02 8.09862783e+02 9.11854202e+02 1.03044581e+03 1.16492067e+03 
3.51119173e-06 7.12804859e+02 8.09350011e+02 9.11859499e+02 1.03022482e+03 1.16477039e+03 
2.84803587e-06 7.12519121e+02 8.09070471e+02 9.11862130e+02 1.03029769e+03 1.16469573e+03 
2.31012970e-06 7.12390488e+02 8.08979302e+02 9.11863314e+02 1.03033898e+03 1.16466213e+03 
1.87381742e-06 7.12338157e+02 8.08942213e+02 9.11863796e+02 1.03033905e+03 1.16464845e+03 
1.51991108e-06 7.12318986e+02 8.08928625e+02 9.11863973e+02 1.03033908e+03 1.16464345e+03 
1.23284674e-06 7.12312711e+02 8.08924178e+02 9.11864031e+02 1.03033909e+03 1.16464181e+03 
1.00000000e-06 7.12310925e+02 8.08922912e+02 9.11864047e+02 1.03033909e+03 1.16464134e+03 
8.11130831e-07 7.12310535e+02 8.08922636e+02 9.11864051e+02 1.03033909e+03 1.16464124e+03 
6.57933225e-07 7.12310535e+02 8.08922636e+02 9.11864051e+02 1.03033909e+03 1.16464124e+03 
5.33669923e-07 7.12310535e+02 8.08922636e+02 9.11864051e+02 1.03033909e+03 1.16464124e+03 
4.32876128e-07 7.12310535e+02 8.08922636e+02 9.11864051e+02 1.03033909e+03 1.16464124e+03 
3.51119173e-07 7.12310535e+02 8.08922636e+02 9.11864051e+02 1.03033909e+03 1.16464124e+03 
2.84803587e-07 7.12310535e+02 8.08922636e+02 9.11864051e+02 1.03033909e+03 1.16464124e+03 
2.31012970e-07 7.12310535e+02 8.08922636e+02 9.11864051e+02 1.03033909e+03 1.16464124e+03 
1.87381742e-07 7.12310535e+02 8.08922636e+02 9.11864051e+02 1.03033909e+03 1.16464124e+03 
1.51991108e-07 7.12310535e+02 8.08922636e+02 9.11864051e+02 1.03033909e+03 1.16464124e+03 
1.23284674e-07 7.12310535e+02 8.08922636e+02 9.11864051e+02 1.03033909e+03 1.16464124e+03 
1.00000000e-07 7.12310535e+02 8.08922636e+02 9.11864051e+02 1.03033909e+03 1.16464124e+03 
