Chemical species: H2 He H2O CH4 SO2
P (bar) | log_H2: -2σ | log_H2: -1σ | log_H2: median | log_H2: +1σ | log_H2: +2σ 
1.00000000e+02 -0.28231482 -0.24116713 -0.18720807 -0.11705852 -0.07031628 
8.11130831e+01 -0.27492847 -0.23070579 -0.18147190 -0.11557466 -0.07031361 
6.57933225e+01 -0.26855150 -0.22163429 -0.17552544 -0.11304546 -0.07031095 
5.33669923e+01 -0.26184462 -0.21319789 -0.17059047 -0.11120994 -0.07030829 
4.32876128e+01 -0.25823611 -0.20531605 -0.16570975 -0.11040188 -0.07030564 
3.51119173e+01 -0.25484985 -0.19828476 -0.16139043 -0.10873327 -0.07030299 
2.84803587e+01 -0.24859395 -0.19072799 -0.15564501 -0.10663140 -0.07029762 
2.31012970e+01 -0.24266088 -0.18119318 -0.14828657 -0.10408706 -0.07028955 
1.87381742e+01 -0.23974406 -0.17332378 -0.14207933 -0.10098431 -0.07028154 
1.51991108e+01 -0.23464514 -0.16636056 -0.13585561 -0.09863447 -0.07027358 
1.23284674e+01 -0.23218548 -0.16024244 -0.13052539 -0.09658452 -0.07026569 
1.00000000e+01 -0.22759502 -0.15518528 -0.12590108 -0.09422502 -0.07025785 
8.11130831e+00 -0.22253491 -0.14698628 -0.11972187 -0.09215165 -0.07025275 
6.57933225e+00 -0.21809956 -0.14051105 -0.11384893 -0.09013201 -0.07024768 
5.33669923e+00 -0.21145310 -0.13533733 -0.10936757 -0.08816061 -0.07024263 
4.32876128e+00 -0.20424849 -0.12978275 -0.10523828 -0.08653287 -0.07023761 
3.51119173e+00 -0.19988296 -0.12554264 -0.10172500 -0.08452662 -0.07023261 
2.84803587e+00 -0.19653605 -0.12106360 -0.09852944 -0.08288749 -0.07022973 
2.31012970e+00 -0.19166351 -0.11719075 -0.09551008 -0.08143001 -0.07022896 
1.87381742e+00 -0.18652238 -0.11409355 -0.09324553 -0.08019645 -0.07022820 
1.51991108e+00 -0.18154354 -0.11171471 -0.09147149 -0.07905560 -0.07022744 
1.23284674e+00 -0.17680811 -0.10934346 -0.08993929 -0.07795647 -0.07022667 
1.00000000e+00 -0.17053103 -0.10747444 -0.08851233 -0.07694459 -0.07012669 
8.11130831e-01 -0.16378203 -0.10673388 -0.08783156 -0.07582803 -0.07012646 
6.57933225e-01 -0.15643764 -0.10601984 -0.08726304 -0.07488621 -0.07008373 
5.33669923e-01 -0.15084011 -0.10519648 -0.08661512 -0.07415790 -0.06995635 
4.32876128e-01 -0.14545214 -0.10438291 -0.08636316 -0.07397007 -0.06994052 
3.51119173e-01 -0.14147173 -0.10377180 -0.08622216 -0.07367907 -0.06980559 
2.84803587e-01 -0.14022593 -0.10305483 -0.08597449 -0.07352286 -0.06980946 
2.31012970e-01 -0.13698811 -0.10234128 -0.08578091 -0.07343656 -0.06961141 
1.87381742e-01 -0.13395254 -0.10164206 -0.08560323 -0.07341866 -0.06952898 
1.51991108e-01 -0.12917986 -0.10128697 -0.08553518 -0.07351858 -0.06941107 
1.23284674e-01 -0.12575599 -0.10075310 -0.08546462 -0.07346269 -0.06935642 
1.00000000e-01 -0.12297837 -0.10018873 -0.08535582 -0.07346073 -0.06941347 
8.11130831e-02 -0.12233529 -0.10002404 -0.08518476 -0.07355903 -0.06939623 
6.57933225e-02 -0.12142954 -0.09984317 -0.08524683 -0.07365187 -0.06927210 
5.33669923e-02 -0.12029535 -0.09966731 -0.08517508 -0.07383904 -0.06918800 
4.32876128e-02 -0.11989653 -0.09951414 -0.08525174 -0.07404121 -0.06914190 
3.51119173e-02 -0.11990989 -0.09930819 -0.08531329 -0.07403258 -0.06908860 
2.84803587e-02 -0.11956731 -0.09891614 -0.08524538 -0.07396645 -0.06899795 
2.31012970e-02 -0.11895793 -0.09898049 -0.08547703 -0.07381834 -0.06905254 
1.87381742e-02 -0.11897786 -0.09889699 -0.08562827 -0.07373882 -0.06903836 
1.51991108e-02 -0.11870728 -0.09876821 -0.08571694 -0.07395509 -0.06897076 
1.23284674e-02 -0.11778856 -0.09883322 -0.08612254 -0.07409759 -0.06882749 
1.00000000e-02 -0.11760757 -0.09889320 -0.08627058 -0.07436184 -0.06873547 
8.11130831e-03 -0.11762047 -0.09893101 -0.08646719 -0.07443298 -0.06870043 
6.57933225e-03 -0.11763362 -0.09918177 -0.08682552 -0.07455374 -0.06861306 
5.33669923e-03 -0.11764692 -0.09953225 -0.08700419 -0.07470749 -0.06860397 
4.32876128e-03 -0.11775886 -0.09969403 -0.08738413 -0.07496500 -0.06859662 
3.51119173e-03 -0.11800063 -0.09991324 -0.08772869 -0.07495182 -0.06857732 
2.84803587e-03 -0.11836197 -0.10030146 -0.08804847 -0.07524595 -0.06855753 
2.31012970e-03 -0.11884562 -0.10046328 -0.08842133 -0.07537981 -0.06854478 
1.87381742e-03 -0.11906057 -0.10074815 -0.08867261 -0.07566917 -0.06855625 
1.51991108e-03 -0.11912231 -0.10126332 -0.08910328 -0.07590850 -0.06854153 
1.23284674e-03 -0.11920416 -0.10164001 -0.08957332 -0.07629844 -0.06852821 
1.00000000e-03 -0.11924603 -0.10225921 -0.09020064 -0.07658052 -0.06852129 
8.11130831e-04 -0.11967223 -0.10295107 -0.09070145 -0.07672240 -0.06852248 
6.57933225e-04 -0.12013704 -0.10343633 -0.09115230 -0.07679305 -0.06852835 
5.33669923e-04 -0.12021378 -0.10397091 -0.09161801 -0.07700115 -0.06853512 
4.32876128e-04 -0.12041865 -0.10467281 -0.09217584 -0.07713373 -0.06854254 
3.51119173e-04 -0.12088916 -0.10533220 -0.09287942 -0.07715829 -0.06855046 
2.84803587e-04 -0.12152026 -0.10623927 -0.09329224 -0.07714182 -0.06855904 
2.31012970e-04 -0.12233011 -0.10704177 -0.09383068 -0.07717439 -0.06857410 
1.87381742e-04 -0.12290374 -0.10781606 -0.09438296 -0.07740673 -0.06857778 
1.51991108e-04 -0.12357837 -0.10863248 -0.09482181 -0.07759952 -0.06858760 
1.23284674e-04 -0.12422395 -0.10933149 -0.09547787 -0.07790366 -0.06859771 
1.00000000e-04 -0.12502495 -0.11018404 -0.09599254 -0.07800312 -0.06860810 
8.11130831e-05 -0.12585878 -0.11073935 -0.09643365 -0.07812804 -0.06861572 
6.57933225e-05 -0.12707674 -0.11133641 -0.09691106 -0.07822618 -0.06862587 
5.33669923e-05 -0.12832240 -0.11213630 -0.09724530 -0.07823402 -0.06863723 
4.32876128e-05 -0.12915812 -0.11293816 -0.09769061 -0.07825931 -0.06864890 
3.51119173e-05 -0.12992399 -0.11409028 -0.09830210 -0.07831322 -0.06866088 
2.84803587e-05 -0.13086388 -0.11492317 -0.09875262 -0.07850367 -0.06866217 
2.31012970e-05 -0.13171655 -0.11544268 -0.09938095 -0.07871171 -0.06866258 
1.87381742e-05 -0.13277851 -0.11644467 -0.10004190 -0.07883057 -0.06866449 
1.51991108e-05 -0.13377674 -0.11759217 -0.10045281 -0.07897606 -0.06866969 
1.23284674e-05 -0.13490899 -0.11849086 -0.10101397 -0.07915067 -0.06867569 
1.00000000e-05 -0.13606244 -0.11933489 -0.10139941 -0.07915070 -0.06868177 
8.11130831e-06 -0.13697265 -0.12005570 -0.10179155 -0.07913517 -0.06868455 
6.57933225e-06 -0.13806370 -0.12101070 -0.10228140 -0.07912229 -0.06868735 
5.33669923e-06 -0.13923690 -0.12189563 -0.10269791 -0.07935576 -0.06869016 
4.32876128e-06 -0.14043181 -0.12293795 -0.10297740 -0.07956518 -0.06869299 
3.51119173e-06 -0.14164896 -0.12399671 -0.10333902 -0.07972119 -0.06869583 
2.84803587e-06 -0.14265920 -0.12481359 -0.10379842 -0.07994540 -0.06869781 
2.31012970e-06 -0.14387575 -0.12554017 -0.10415991 -0.07995708 -0.06869892 
1.87381742e-06 -0.14537361 -0.12616953 -0.10432527 -0.08008147 -0.06870004 
1.51991108e-06 -0.14643958 -0.12730420 -0.10462249 -0.08014998 -0.06870115 
1.23284674e-06 -0.14817224 -0.12796030 -0.10490854 -0.08038761 -0.06870227 
1.00000000e-06 -0.14920620 -0.12859807 -0.10519392 -0.08063494 -0.06870339 
8.11130831e-07 -0.15019656 -0.12899284 -0.10543282 -0.08075641 -0.06870725 
6.57933225e-07 -0.15106914 -0.12945365 -0.10559145 -0.08110360 -0.06871536 
5.33669923e-07 -0.15226071 -0.13000647 -0.10593509 -0.08136259 -0.06872359 
4.32876128e-07 -0.15347199 -0.13041356 -0.10612833 -0.08147029 -0.06872512 
3.51119173e-07 -0.15466080 -0.13093850 -0.10656625 -0.08146100 -0.06872294 
2.84803587e-07 -0.15463824 -0.13167169 -0.10694121 -0.08146335 -0.06871880 
2.31012970e-07 -0.15518347 -0.13221015 -0.10715030 -0.08154723 -0.06871275 
1.87381742e-07 -0.15638770 -0.13244370 -0.10718848 -0.08154057 -0.06870768 
1.51991108e-07 -0.15710901 -0.13278745 -0.10721763 -0.08158565 -0.06870821 
1.23284674e-07 -0.15820780 -0.13296291 -0.10722426 -0.08175865 -0.06870875 
1.00000000e-07 -0.15887826 -0.13336605 -0.10723701 -0.08187146 -0.06870929 
P (bar) | log_He: -2σ | log_He: -1σ | log_He: median | log_He: +1σ | log_He: +2σ 
1.00000000e+02 -1.05186590 -1.01071821 -0.95675915 -0.88660960 -0.83986736 
8.11130831e+01 -1.04447955 -1.00025687 -0.95102298 -0.88512574 -0.83986469 
6.57933225e+01 -1.03810258 -0.99118537 -0.94507652 -0.88259654 -0.83986202 
5.33669923e+01 -1.03139570 -0.98274897 -0.94014155 -0.88076102 -0.83985937 
4.32876128e+01 -1.02778719 -0.97486713 -0.93526083 -0.87995296 -0.83985672 
3.51119173e+01 -1.02440093 -0.96783584 -0.93094151 -0.87828435 -0.83985407 
2.84803587e+01 -1.01814503 -0.96027907 -0.92519609 -0.87618248 -0.83984869 
2.31012970e+01 -1.01221196 -0.95074426 -0.91783765 -0.87363814 -0.83984063 
1.87381742e+01 -1.00929514 -0.94287485 -0.91163040 -0.87053539 -0.83983262 
1.51991108e+01 -1.00419622 -0.93591164 -0.90540669 -0.86818555 -0.83982466 
1.23284674e+01 -1.00173656 -0.92979352 -0.90007646 -0.86613560 -0.83981677 
1.00000000e+01 -0.99714610 -0.92473636 -0.89545216 -0.86377610 -0.83980893 
8.11130831e+00 -0.99208599 -0.91653736 -0.88927295 -0.86170273 -0.83980383 
6.57933225e+00 -0.98765064 -0.91006213 -0.88340001 -0.85968309 -0.83979876 
5.33669923e+00 -0.98100417 -0.90488841 -0.87891865 -0.85771169 -0.83979371 
4.32876128e+00 -0.97379956 -0.89933383 -0.87478936 -0.85608395 -0.83978869 
3.51119173e+00 -0.96943404 -0.89509372 -0.87127607 -0.85407770 -0.83978368 
2.84803587e+00 -0.96608712 -0.89061468 -0.86808052 -0.85243857 -0.83978081 
2.31012970e+00 -0.96121459 -0.88674183 -0.86506115 -0.85098108 -0.83978004 
1.87381742e+00 -0.95607346 -0.88364463 -0.86279661 -0.84974753 -0.83977928 
1.51991108e+00 -0.95109462 -0.88126579 -0.86102257 -0.84860668 -0.83977851 
1.23284674e+00 -0.94635919 -0.87889454 -0.85949037 -0.84750755 -0.83977775 
1.00000000e+00 -0.94008211 -0.87702551 -0.85806341 -0.84649567 -0.83967777 
8.11130831e-01 -0.93333311 -0.87628496 -0.85738263 -0.84537911 -0.83967754 
6.57933225e-01 -0.92598872 -0.87557092 -0.85681412 -0.84443729 -0.83963481 
5.33669923e-01 -0.92039119 -0.87474756 -0.85616620 -0.84370898 -0.83950743 
4.32876128e-01 -0.91500322 -0.87393398 -0.85591424 -0.84352115 -0.83949160 
3.51119173e-01 -0.91102281 -0.87332288 -0.85577324 -0.84323015 -0.83935667 
2.84803587e-01 -0.90977701 -0.87260591 -0.85552557 -0.84307394 -0.83936053 
2.31012970e-01 -0.90653919 -0.87189235 -0.85533199 -0.84298764 -0.83916249 
1.87381742e-01 -0.90350362 -0.87119314 -0.85515431 -0.84296974 -0.83908006 
1.51991108e-01 -0.89873094 -0.87083805 -0.85508626 -0.84306966 -0.83896215 
1.23284674e-01 -0.89530707 -0.87030418 -0.85501569 -0.84301377 -0.83890750 
1.00000000e-01 -0.89252945 -0.86973981 -0.85490690 -0.84301181 -0.83896454 
8.11130831e-02 -0.89188637 -0.86957512 -0.85473584 -0.84311010 -0.83894731 
6.57933225e-02 -0.89098062 -0.86939425 -0.85479791 -0.84320295 -0.83882317 
5.33669923e-02 -0.88984642 -0.86921839 -0.85472615 -0.84339012 -0.83873908 
4.32876128e-02 -0.88944761 -0.86906522 -0.85480282 -0.84359229 -0.83869298 
3.51119173e-02 -0.88946097 -0.86885927 -0.85486437 -0.84358366 -0.83863968 
2.84803587e-02 -0.88911839 -0.86846722 -0.85479646 -0.84351753 -0.83854902 
2.31012970e-02 -0.88850901 -0.86853157 -0.85502811 -0.84336942 -0.83860362 
1.87381742e-02 -0.88852894 -0.86844807 -0.85517935 -0.84328990 -0.83858944 
1.51991108e-02 -0.88825836 -0.86831929 -0.85526802 -0.84350617 -0.83852184 
1.23284674e-02 -0.88733964 -0.86838430 -0.85567361 -0.84364866 -0.83837857 
1.00000000e-02 -0.88715865 -0.86844428 -0.85582166 -0.84391292 -0.83828655 
8.11130831e-03 -0.88717155 -0.86848209 -0.85601827 -0.84398405 -0.83825150 
6.57933225e-03 -0.88718470 -0.86873285 -0.85637660 -0.84410482 -0.83816414 
5.33669923e-03 -0.88719800 -0.86908332 -0.85655527 -0.84425857 -0.83815505 
4.32876128e-03 -0.88730993 -0.86924511 -0.85693521 -0.84451608 -0.83814769 
3.51119173e-03 -0.88755170 -0.86946432 -0.85727977 -0.84450290 -0.83812840 
2.84803587e-03 -0.88791305 -0.86985254 -0.85759955 -0.84479703 -0.83810861 
2.31012970e-03 -0.88839670 -0.87001436 -0.85797241 -0.84493089 -0.83809585 
1.87381742e-03 -0.88861165 -0.87029923 -0.85822369 -0.84522025 -0.83810733 
1.51991108e-03 -0.88867339 -0.87081440 -0.85865436 -0.84545958 -0.83809261 
1.23284674e-03 -0.88875524 -0.87119109 -0.85912440 -0.84584951 -0.83807929 
1.00000000e-03 -0.88879711 -0.87181029 -0.85975171 -0.84613160 -0.83807237 
8.11130831e-04 -0.88922330 -0.87250215 -0.86025253 -0.84627348 -0.83807356 
6.57933225e-04 -0.88968812 -0.87298741 -0.86070338 -0.84634413 -0.83807943 
5.33669923e-04 -0.88976485 -0.87352199 -0.86116909 -0.84655223 -0.83808620 
4.32876128e-04 -0.88996973 -0.87422389 -0.86172692 -0.84668480 -0.83809362 
3.51119173e-04 -0.89044024 -0.87488328 -0.86243050 -0.84670937 -0.83810154 
2.84803587e-04 -0.89107134 -0.87579035 -0.86284332 -0.84669290 -0.83811012 
2.31012970e-04 -0.89188119 -0.87659285 -0.86338176 -0.84672547 -0.83812518 
1.87381742e-04 -0.89245481 -0.87736714 -0.86393403 -0.84695781 -0.83812886 
1.51991108e-04 -0.89312945 -0.87818356 -0.86437289 -0.84715060 -0.83813868 
1.23284674e-04 -0.89377503 -0.87888257 -0.86502895 -0.84745474 -0.83814879 
1.00000000e-04 -0.89457603 -0.87973512 -0.86554361 -0.84755420 -0.83815918 
8.11130831e-05 -0.89540986 -0.88029043 -0.86598473 -0.84767912 -0.83816680 
6.57933225e-05 -0.89662782 -0.88088749 -0.86646214 -0.84777726 -0.83817695 
5.33669923e-05 -0.89787348 -0.88168738 -0.86679638 -0.84778510 -0.83818831 
4.32876128e-05 -0.89870920 -0.88248924 -0.86724169 -0.84781039 -0.83819998 
3.51119173e-05 -0.89947507 -0.88364136 -0.86785317 -0.84786430 -0.83821196 
2.84803587e-05 -0.90041496 -0.88447425 -0.86830370 -0.84805475 -0.83821325 
2.31012970e-05 -0.90126763 -0.88499376 -0.86893202 -0.84826279 -0.83821366 
1.87381742e-05 -0.90232959 -0.88599575 -0.86959298 -0.84838165 -0.83821556 
1.51991108e-05 -0.90332782 -0.88714325 -0.87000388 -0.84852714 -0.83822077 
1.23284674e-05 -0.90446006 -0.88804194 -0.87056504 -0.84870175 -0.83822677 
1.00000000e-05 -0.90561352 -0.88888597 -0.87095049 -0.84870178 -0.83823285 
8.11130831e-06 -0.90652373 -0.88960678 -0.87134263 -0.84868625 -0.83823563 
6.57933225e-06 -0.90761478 -0.89056178 -0.87183248 -0.84867336 -0.83823842 
5.33669923e-06 -0.90878798 -0.89144671 -0.87224899 -0.84890684 -0.83824124 
4.32876128e-06 -0.90998289 -0.89248903 -0.87252848 -0.84911626 -0.83824407 
3.51119173e-06 -0.91120004 -0.89354778 -0.87289010 -0.84927227 -0.83824691 
2.84803587e-06 -0.91221028 -0.89436466 -0.87334950 -0.84949648 -0.83824889 
2.31012970e-06 -0.91342683 -0.89509125 -0.87371099 -0.84950816 -0.83825000 
1.87381742e-06 -0.91492469 -0.89572061 -0.87387635 -0.84963255 -0.83825112 
1.51991108e-06 -0.91599066 -0.89685527 -0.87417357 -0.84970105 -0.83825223 
1.23284674e-06 -0.91772332 -0.89751138 -0.87445962 -0.84993869 -0.83825335 
1.00000000e-06 -0.91875728 -0.89814915 -0.87474500 -0.85018602 -0.83825447 
8.11130831e-07 -0.91974763 -0.89854392 -0.87498390 -0.85030748 -0.83825833 
6.57933225e-07 -0.92062022 -0.89900473 -0.87514253 -0.85065467 -0.83826644 
5.33669923e-07 -0.92181179 -0.89955755 -0.87548617 -0.85091367 -0.83827467 
4.32876128e-07 -0.92302306 -0.89996464 -0.87567941 -0.85102137 -0.83827620 
3.51119173e-07 -0.92421188 -0.90048957 -0.87611733 -0.85101208 -0.83827402 
2.84803587e-07 -0.92418932 -0.90122277 -0.87649228 -0.85101443 -0.83826988 
2.31012970e-07 -0.92473455 -0.90176122 -0.87670137 -0.85109831 -0.83826383 
1.87381742e-07 -0.92593878 -0.90199478 -0.87673956 -0.85109165 -0.83825876 
1.51991108e-07 -0.92666009 -0.90233853 -0.87676871 -0.85113673 -0.83825929 
1.23284674e-07 -0.92775888 -0.90251399 -0.87677534 -0.85130973 -0.83825983 
1.00000000e-07 -0.92842934 -0.90291713 -0.87678809 -0.85142254 -0.83826037 
P (bar) | log_H2O: -2σ | log_H2O: -1σ | log_H2O: median | log_H2O: +1σ | log_H2O: +2σ 
1.00000000e+02 -3.09770085 -1.46552260 -0.93191133 -0.72479845 -0.61733552 
8.11130831e+01 -3.08967028 -1.47085491 -0.94864812 -0.74032965 -0.63010004 
6.57933225e+01 -3.08163971 -1.47196845 -0.96531013 -0.75756643 -0.63959300 
5.33669923e+01 -3.07360915 -1.47286681 -0.98364713 -0.77437236 -0.65484531 
4.32876128e+01 -3.06557858 -1.49245232 -0.99867046 -0.79091542 -0.66677582 
3.51119173e+01 -3.05754801 -1.49291890 -1.01423903 -0.80523995 -0.67821305 
2.84803587e+01 -3.04679012 -1.50105592 -1.02984010 -0.82473264 -0.69074425 
2.31012970e+01 -3.04561857 -1.51550699 -1.05825429 -0.84655416 -0.70443951 
1.87381742e+01 -3.04860512 -1.54234587 -1.08674190 -0.86664437 -0.71662669 
1.51991108e+01 -3.05159168 -1.56484605 -1.11969897 -0.88818489 -0.73003008 
1.23284674e+01 -3.05457823 -1.58542133 -1.14737718 -0.91084817 -0.74552530 
1.00000000e+01 -3.05756479 -1.61223658 -1.17167160 -0.93038834 -0.75905862 
8.11130831e+00 -3.05146808 -1.63343345 -1.19948792 -0.95143047 -0.77874565 
6.57933225e+00 -3.05362805 -1.67593616 -1.23174959 -0.97396425 -0.79562197 
5.33669923e+00 -3.05578802 -1.73018785 -1.25323033 -0.99522493 -0.80400819 
4.32876128e+00 -3.05093555 -1.75875334 -1.27611095 -1.01673777 -0.81655076 
3.51119173e+00 -3.05106617 -1.79814356 -1.30250495 -1.03518701 -0.83360360 
2.84803587e+00 -3.05060775 -1.84326381 -1.32220663 -1.05281230 -0.85090049 
2.31012970e+00 -3.04956028 -1.87432368 -1.33994580 -1.06520221 -0.86272961 
1.87381742e+00 -3.04851281 -1.91109644 -1.35518019 -1.08108545 -0.87449768 
1.51991108e+00 -3.04746535 -1.95765587 -1.37231563 -1.09656770 -0.88347859 
1.23284674e+00 -3.04641788 -1.98308484 -1.39475939 -1.10723115 -0.89239918 
1.00000000e+00 -3.04537042 -2.01878573 -1.40958823 -1.12179900 -0.90406517 
8.11130831e-01 -3.04706482 -2.03344140 -1.41398786 -1.13128290 -0.91250873 
6.57933225e-01 -3.04875922 -2.04153831 -1.42506179 -1.13500521 -0.91904782 
5.33669923e-01 -3.03374329 -2.05216608 -1.42843182 -1.14030571 -0.92789740 
4.32876128e-01 -3.03311592 -2.06445271 -1.43919111 -1.14412583 -0.94258736 
3.51119173e-01 -3.02059172 -2.08130330 -1.44305281 -1.15163931 -0.94642008 
2.84803587e-01 -3.01975169 -2.08028393 -1.44543319 -1.15663462 -0.94872100 
2.31012970e-01 -3.00043913 -2.06729211 -1.44437315 -1.15678483 -0.95151590 
1.87381742e-01 -3.02132323 -2.04966460 -1.44570900 -1.15694226 -0.95530432 
1.51991108e-01 -3.02832940 -2.03971605 -1.44671781 -1.15764842 -0.95607872 
1.23284674e-01 -3.02191692 -2.04775574 -1.44948876 -1.16336005 -0.95685313 
1.00000000e-01 -3.02221376 -2.04924830 -1.45203354 -1.16866408 -0.95762753 
8.11130831e-02 -3.02483243 -2.04513744 -1.44962150 -1.16780866 -0.95812611 
6.57933225e-02 -3.02745110 -2.04795177 -1.44637425 -1.16904019 -0.96025034 
5.33669923e-02 -3.03743078 -2.03504924 -1.44291682 -1.17144136 -0.96015258 
4.32876128e-02 -3.04775729 -2.02829889 -1.43805389 -1.17228392 -0.96005482 
3.51119173e-02 -3.06927290 -2.00789055 -1.43253024 -1.17175814 -0.96122287 
2.84803587e-02 -3.07105478 -1.98822887 -1.42565479 -1.17117279 -0.97302678 
2.31012970e-02 -3.07484020 -1.96690374 -1.41843177 -1.17063761 -0.97265005 
1.87381742e-02 -3.09250130 -1.94071512 -1.41352088 -1.17018858 -0.97227333 
1.51991108e-02 -3.09598912 -1.91963907 -1.40673581 -1.16990398 -0.97189660 
1.23284674e-02 -3.11538316 -1.89721413 -1.40145708 -1.16961938 -0.97151987 
1.00000000e-02 -3.12163228 -1.89820603 -1.39513089 -1.16932685 -0.97114315 
8.11130831e-03 -3.12843308 -1.87848647 -1.38846251 -1.16708125 -0.97024128 
6.57933225e-03 -3.13072776 -1.85807617 -1.38213682 -1.16397620 -0.96933941 
5.33669923e-03 -3.14203469 -1.84401651 -1.37429208 -1.16142878 -0.96843754 
4.32876128e-03 -3.14883549 -1.83623654 -1.36738947 -1.15550528 -0.96753568 
3.51119173e-03 -3.15563629 -1.81728477 -1.35736584 -1.15268906 -0.96663381 
2.84803587e-03 -3.15597867 -1.80562586 -1.35082152 -1.14951454 -0.96519314 
2.31012970e-03 -3.14425124 -1.78538795 -1.34243941 -1.14566657 -0.96321366 
1.87381742e-03 -3.12948653 -1.76906781 -1.33736481 -1.14168061 -0.96123418 
1.51991108e-03 -3.13818381 -1.75753837 -1.32780087 -1.13492958 -0.95812706 
1.23284674e-03 -3.14241753 -1.73519498 -1.31839761 -1.13076316 -0.95547877 
1.00000000e-03 -3.15312734 -1.72044932 -1.30622513 -1.12370339 -0.95519474 
8.11130831e-04 -3.14163303 -1.71370198 -1.29710739 -1.11512809 -0.95374377 
6.57933225e-04 -3.13013872 -1.70876149 -1.28881659 -1.10891860 -0.95250521 
5.33669923e-04 -3.11864441 -1.70010997 -1.28208349 -1.10281970 -0.94936035 
