Chemical species: H2 He CO2 CO CH4 H2S
P (bar) | log_H2: -2σ | log_H2: -1σ | log_H2: median | log_H2: +1σ | log_H2: +2σ 
1.00000000e+02 -0.39290675 -0.37364965 -0.35414522 -0.33352443 -0.30580268 
8.11130831e+01 -0.39213327 -0.37309255 -0.35372327 -0.33336499 -0.30569504 
6.57933225e+01 -0.39144716 -0.37264220 -0.35343602 -0.33320574 -0.30558789 
5.33669923e+01 -0.39084668 -0.37221682 -0.35316430 -0.33305551 -0.30548122 
4.32876128e+01 -0.39033190 -0.37182092 -0.35294213 -0.33291205 -0.30539602 
3.51119173e+01 -0.38993908 -0.37146862 -0.35273238 -0.33274802 -0.30533806 
2.84803587e+01 -0.38930622 -0.37088774 -0.35237001 -0.33245050 -0.30524291 
2.31012970e+01 -0.38842136 -0.37016817 -0.35173439 -0.33209567 -0.30511106 
1.87381742e+01 -0.38764294 -0.36950342 -0.35125984 -0.33177513 -0.30498056 
1.51991108e+01 -0.38697495 -0.36888471 -0.35076621 -0.33147968 -0.30485131 
1.23284674e+01 -0.38642223 -0.36834423 -0.35028259 -0.33116621 -0.30472325 
1.00000000e+01 -0.38599030 -0.36785254 -0.34985268 -0.33086526 -0.30459634 
8.11130831e+00 -0.38482874 -0.36682443 -0.34897078 -0.33021502 -0.30430647 
6.57933225e+00 -0.38378443 -0.36582680 -0.34807976 -0.32959295 -0.30402221 
5.33669923e+00 -0.38286173 -0.36491869 -0.34725967 -0.32898895 -0.30374352 
4.32876128e+00 -0.38206540 -0.36409793 -0.34651995 -0.32839894 -0.30347039 
3.51119173e+00 -0.38140063 -0.36337188 -0.34586238 -0.32784089 -0.30320282 
2.84803587e+00 -0.38043047 -0.36232244 -0.34492303 -0.32704281 -0.30277695 
2.31012970e+00 -0.37909894 -0.36102587 -0.34371300 -0.32599511 -0.30220358 
1.87381742e+00 -0.37785010 -0.35983862 -0.34260766 -0.32502132 -0.30165010 
1.51991108e+00 -0.37673297 -0.35873942 -0.34166352 -0.32409682 -0.30111642 
1.23284674e+00 -0.37575061 -0.35775506 -0.34076968 -0.32325212 -0.30060248 
1.00000000e+00 -0.37490635 -0.35684826 -0.33993944 -0.32246976 -0.30010823 
8.11130831e-01 -0.37336375 -0.35524143 -0.33842454 -0.32104964 -0.29913527 
6.57933225e-01 -0.37188960 -0.35374135 -0.33704027 -0.31973617 -0.29820995 
5.33669923e-01 -0.37049404 -0.35234760 -0.33578248 -0.31854714 -0.29724497 
4.32876128e-01 -0.36922279 -0.35107599 -0.33461162 -0.31743204 -0.29632241 
3.51119173e-01 -0.36807678 -0.35003379 -0.33357812 -0.31638146 -0.29545611 
2.84803587e-01 -0.36673274 -0.34873950 -0.33233629 -0.31504331 -0.29436652 
2.31012970e-01 -0.36516949 -0.34721256 -0.33076428 -0.31346631 -0.29314566 
1.87381742e-01 -0.36370384 -0.34579285 -0.32933932 -0.31200424 -0.29200027 
1.51991108e-01 -0.36233552 -0.34440960 -0.32801601 -0.31065658 -0.29092944 
1.23284674e-01 -0.36106436 -0.34313984 -0.32670288 -0.30941708 -0.28993234 
1.00000000e-01 -0.35989028 -0.34197874 -0.32557391 -0.30828274 -0.28884962 
8.11130831e-02 -0.35854673 -0.34076229 -0.32401532 -0.30678003 -0.28729036 
6.57933225e-02 -0.35725741 -0.33944267 -0.32266923 -0.30539349 -0.28581494 
5.33669923e-02 -0.35602159 -0.33831163 -0.32137876 -0.30399045 -0.28442060 
4.32876128e-02 -0.35483860 -0.33709721 -0.32015431 -0.30264356 -0.28310477 
3.51119173e-02 -0.35370783 -0.33602482 -0.31899483 -0.30127657 -0.28186512 
2.84803587e-02 -0.35273881 -0.33509350 -0.31787940 -0.30009184 -0.28056654 
2.31012970e-02 -0.35191349 -0.33424004 -0.31678436 -0.29888966 -0.27919631 
1.87381742e-02 -0.35105849 -0.33335237 -0.31568031 -0.29771238 -0.27788127 
1.51991108e-02 -0.35011984 -0.33248595 -0.31476800 -0.29659703 -0.27661895 
1.23284674e-02 -0.34944420 -0.33158988 -0.31381234 -0.29553873 -0.27540714 
1.00000000e-02 -0.34878188 -0.33069259 -0.31288507 -0.29454564 -0.27421947 
8.11130831e-03 -0.34824666 -0.33015894 -0.31218208 -0.29359678 -0.27320622 
6.57933225e-03 -0.34772017 -0.32959497 -0.31147247 -0.29278841 -0.27222045 
5.33669923e-03 -0.34720168 -0.32901799 -0.31080308 -0.29207075 -0.27126040 
4.32876128e-03 -0.34669052 -0.32837498 -0.31012186 -0.29124167 -0.27025022 
3.51119173e-03 -0.34618611 -0.32778195 -0.30953815 -0.29045152 -0.26923288 
2.84803587e-03 -0.34574602 -0.32728660 -0.30904196 -0.28983329 -0.26837688 
2.31012970e-03 -0.34537211 -0.32686643 -0.30860526 -0.28936560 -0.26766961 
1.87381742e-03 -0.34500642 -0.32645429 -0.30818420 -0.28884550 -0.26697471 
1.51991108e-03 -0.34464829 -0.32606729 -0.30775074 -0.28839120 -0.26625934 
1.23284674e-03 -0.34429716 -0.32570566 -0.30732196 -0.28796551 -0.26554174 
1.00000000e-03 -0.34395251 -0.32535034 -0.30696451 -0.28753764 -0.26483549 
8.11130831e-04 -0.34365123 -0.32506836 -0.30669195 -0.28728639 -0.26442054 
6.57933225e-04 -0.34335802 -0.32479379 -0.30642714 -0.28704218 -0.26401228 
5.33669923e-04 -0.34307231 -0.32452592 -0.30617512 -0.28680193 -0.26360986 
4.32876128e-04 -0.34279361 -0.32426222 -0.30591807 -0.28656676 -0.26321255 
3.51119173e-04 -0.34252147 -0.32400394 -0.30567268 -0.28633480 -0.26281972 
2.84803587e-04 -0.34226704 -0.32377552 -0.30545160 -0.28614776 -0.26251882 
2.31012970e-04 -0.34203001 -0.32356520 -0.30527200 -0.28600521 -0.26230954 
1.87381742e-04 -0.34179842 -0.32335892 -0.30510627 -0.28586432 -0.26210343 
1.51991108e-04 -0.34157187 -0.32315666 -0.30493896 -0.28572483 -0.26190004 
1.23284674e-04 -0.34135005 -0.32295806 -0.30478454 -0.28558652 -0.26169900 
1.00000000e-04 -0.34113266 -0.32276286 -0.30461448 -0.28545653 -0.26149997 
8.11130831e-05 -0.34095505 -0.32260396 -0.30448637 -0.28536003 -0.26138581 
6.57933225e-05 -0.34078013 -0.32244713 -0.30438034 -0.28526413 -0.26127305 
5.33669923e-05 -0.34060764 -0.32229214 -0.30427494 -0.28517242 -0.26116145 
4.32876128e-05 -0.34043736 -0.32214518 -0.30417005 -0.28508265 -0.26105084 
3.51119173e-05 -0.34026912 -0.32201005 -0.30406561 -0.28499321 -0.26094104 
2.84803587e-05 -0.34011391 -0.32188413 -0.30396339 -0.28490424 -0.26084797 
2.31012970e-05 -0.33997102 -0.32176681 -0.30386341 -0.28481575 -0.26077154 
1.87381742e-05 -0.33982897 -0.32165005 -0.30376377 -0.28472756 -0.26069560 
1.51991108e-05 -0.33968766 -0.32152489 -0.30366442 -0.28464098 -0.26062007 
1.23284674e-05 -0.33954699 -0.32139913 -0.30355498 -0.28455043 -0.26054489 
1.00000000e-05 -0.33940689 -0.32127388 -0.30343988 -0.28446012 -0.26047000 
8.11130831e-06 -0.33924455 -0.32112898 -0.30330034 -0.28434696 -0.26040368 
6.57933225e-06 -0.33908259 -0.32098447 -0.30316117 -0.28423409 -0.26033763 
5.33669923e-06 -0.33892098 -0.32084029 -0.30302231 -0.28412149 -0.26027182 
4.32876128e-06 -0.33875968 -0.32069641 -0.30288374 -0.28400915 -0.26020623 
3.51119173e-06 -0.33859865 -0.32054938 -0.30274543 -0.28389708 -0.26014083 
2.84803587e-06 -0.33839634 -0.32035246 -0.30256981 -0.28375572 -0.26007239 
2.31012970e-06 -0.33815300 -0.32012562 -0.30235709 -0.28358544 -0.26000092 
1.87381742e-06 -0.33791019 -0.31991794 -0.30216714 -0.28341557 -0.25992964 
1.51991108e-06 -0.33766791 -0.31971166 -0.30195731 -0.28324648 -0.25985854 
1.23284674e-06 -0.33742614 -0.31951534 -0.30174798 -0.28308085 -0.25978761 
1.00000000e-06 -0.33718486 -0.31931157 -0.30156624 -0.28291562 -0.25971684 
8.11130831e-07 -0.33678026 -0.31895191 -0.30124424 -0.28265453 -0.25961922 
6.57933225e-07 -0.33637703 -0.31855918 -0.30092891 -0.28238003 -0.25952183 
5.33669923e-07 -0.33597516 -0.31819574 -0.30062328 -0.28212060 -0.25942467 
4.32876128e-07 -0.33553745 -0.31785272 -0.30029556 -0.28187748 -0.25932775 
3.51119173e-07 -0.33507971 -0.31751593 -0.29995556 -0.28163490 -0.25923104 
2.84803587e-07 -0.33446910 -0.31702891 -0.29946489 -0.28129248 -0.25910435 
2.31012970e-07 -0.33370764 -0.31640017 -0.29886618 -0.28084210 -0.25894784 
1.87381742e-07 -0.33295029 -0.31575835 -0.29831501 -0.28031496 -0.25879178 
1.51991108e-07 -0.33226680 -0.31508786 -0.29779570 -0.27978564 -0.25863615 
1.23284674e-07 -0.33165412 -0.31442348 -0.29724946 -0.27925806 -0.25836830 
1.00000000e-07 -0.33104408 -0.31381380 -0.29666205 -0.27871727 -0.25782942 
P (bar) | log_He: -2σ | log_He: -1σ | log_He: median | log_He: +1σ | log_He: +2σ 
1.00000000e+02 -1.16245783 -1.14320073 -1.12369630 -1.10307551 -1.07535375 
8.11130831e+01 -1.16168434 -1.14264362 -1.12327435 -1.10291607 -1.07524611 
6.57933225e+01 -1.16099824 -1.14219328 -1.12298710 -1.10275681 -1.07513896 
5.33669923e+01 -1.16039775 -1.14176790 -1.12271538 -1.10260659 -1.07503229 
4.32876128e+01 -1.15988298 -1.14137200 -1.12249321 -1.10246312 -1.07494710 
3.51119173e+01 -1.15949015 -1.14101970 -1.12228346 -1.10229910 -1.07488914 
2.84803587e+01 -1.15885730 -1.14043882 -1.12192109 -1.10200158 -1.07479399 
2.31012970e+01 -1.15797244 -1.13971925 -1.12128547 -1.10164675 -1.07466214 
1.87381742e+01 -1.15719402 -1.13905449 -1.12081092 -1.10132621 -1.07453164 
1.51991108e+01 -1.15652603 -1.13843579 -1.12031729 -1.10103076 -1.07440239 
1.23284674e+01 -1.15597331 -1.13789531 -1.11983367 -1.10071729 -1.07427433 
1.00000000e+01 -1.15554138 -1.13740362 -1.11940376 -1.10041634 -1.07414742 
8.11130831e+00 -1.15437982 -1.13637551 -1.11852186 -1.09976610 -1.07385755 
6.57933225e+00 -1.15333551 -1.13537788 -1.11763084 -1.09914403 -1.07357329 
5.33669923e+00 -1.15241281 -1.13446977 -1.11681075 -1.09854003 -1.07329459 
4.32876128e+00 -1.15161648 -1.13364901 -1.11607103 -1.09795002 -1.07302147 
3.51119173e+00 -1.15095171 -1.13292296 -1.11541346 -1.09739197 -1.07275389 
2.84803587e+00 -1.14998155 -1.13187352 -1.11447410 -1.09659389 -1.07232803 
2.31012970e+00 -1.14865002 -1.13057695 -1.11326408 -1.09554618 -1.07175466 
1.87381742e+00 -1.14740118 -1.12938970 -1.11215874 -1.09457240 -1.07120118 
1.51991108e+00 -1.14628405 -1.12829050 -1.11121460 -1.09364790 -1.07066750 
1.23284674e+00 -1.14530169 -1.12730614 -1.11032076 -1.09280320 -1.07015356 
1.00000000e+00 -1.14445743 -1.12639934 -1.10949052 -1.09202084 -1.06965930 
8.11130831e-01 -1.14291482 -1.12479251 -1.10797562 -1.09060072 -1.06868635 
6.57933225e-01 -1.14144068 -1.12329243 -1.10659135 -1.08928724 -1.06776103 
5.33669923e-01 -1.14004511 -1.12189868 -1.10533356 -1.08809822 -1.06679605 
4.32876128e-01 -1.13877387 -1.12062706 -1.10416269 -1.08698312 -1.06587349 
3.51119173e-01 -1.13762786 -1.11958487 -1.10312920 -1.08593254 -1.06500719 
2.84803587e-01 -1.13628382 -1.11829058 -1.10188736 -1.08459439 -1.06391760 
2.31012970e-01 -1.13472057 -1.11676364 -1.10031536 -1.08301739 -1.06269674 
1.87381742e-01 -1.13325492 -1.11534393 -1.09889040 -1.08155532 -1.06155135 
1.51991108e-01 -1.13188660 -1.11396067 -1.09756709 -1.08020766 -1.06048052 
1.23284674e-01 -1.13061544 -1.11269092 -1.09625396 -1.07896816 -1.05948341 
1.00000000e-01 -1.12944136 -1.11152982 -1.09512498 -1.07783382 -1.05840070 
8.11130831e-02 -1.12809781 -1.11031337 -1.09356640 -1.07633111 -1.05684143 
6.57933225e-02 -1.12680849 -1.10899375 -1.09222031 -1.07494457 -1.05536602 
5.33669923e-02 -1.12557267 -1.10786271 -1.09092984 -1.07354153 -1.05397168 
4.32876128e-02 -1.12438968 -1.10664829 -1.08970539 -1.07219464 -1.05265585 
3.51119173e-02 -1.12325890 -1.10557590 -1.08854591 -1.07082765 -1.05141620 
2.84803587e-02 -1.12228988 -1.10464458 -1.08743048 -1.06964292 -1.05011762 
2.31012970e-02 -1.12146457 -1.10379112 -1.08633544 -1.06844074 -1.04874739 
1.87381742e-02 -1.12060957 -1.10290345 -1.08523139 -1.06726346 -1.04743235 
1.51991108e-02 -1.11967092 -1.10203703 -1.08431908 -1.06614811 -1.04617003 
1.23284674e-02 -1.11899528 -1.10114096 -1.08336342 -1.06508980 -1.04495821 
1.00000000e-02 -1.11833296 -1.10024367 -1.08243615 -1.06409672 -1.04377055 
8.11130831e-03 -1.11779774 -1.09971002 -1.08173315 -1.06314786 -1.04275730 
6.57933225e-03 -1.11727125 -1.09914605 -1.08102355 -1.06233949 -1.04177153 
5.33669923e-03 -1.11675275 -1.09856907 -1.08035416 -1.06162183 -1.04081148 
4.32876128e-03 -1.11624160 -1.09792606 -1.07967294 -1.06079275 -1.03980130 
3.51119173e-03 -1.11573719 -1.09733303 -1.07908923 -1.06000259 -1.03878396 
2.84803587e-03 -1.11529710 -1.09683768 -1.07859303 -1.05938437 -1.03792795 
2.31012970e-03 -1.11492319 -1.09641751 -1.07815634 -1.05891667 -1.03722069 
1.87381742e-03 -1.11455749 -1.09600537 -1.07773528 -1.05839658 -1.03652579 
1.51991108e-03 -1.11419937 -1.09561836 -1.07730182 -1.05794228 -1.03581042 
1.23284674e-03 -1.11384824 -1.09525674 -1.07687304 -1.05751659 -1.03509281 
1.00000000e-03 -1.11350359 -1.09490142 -1.07651559 -1.05708872 -1.03438657 
8.11130831e-04 -1.11320231 -1.09461944 -1.07624303 -1.05683747 -1.03397162 
6.57933225e-04 -1.11290909 -1.09434487 -1.07597822 -1.05659326 -1.03356336 
5.33669923e-04 -1.11262339 -1.09407700 -1.07572620 -1.05635301 -1.03316094 
4.32876128e-04 -1.11234468 -1.09381330 -1.07546915 -1.05611784 -1.03276363 
3.51119173e-04 -1.11207255 -1.09355502 -1.07522376 -1.05588588 -1.03237080 
2.84803587e-04 -1.11181812 -1.09332660 -1.07500268 -1.05569884 -1.03206990 
2.31012970e-04 -1.11158109 -1.09311628 -1.07482308 -1.05555629 -1.03186062 
1.87381742e-04 -1.11134949 -1.09291000 -1.07465735 -1.05541540 -1.03165451 
1.51991108e-04 -1.11112295 -1.09270774 -1.07449004 -1.05527591 -1.03145112 
1.23284674e-04 -1.11090113 -1.09250914 -1.07433562 -1.05513760 -1.03125008 
1.00000000e-04 -1.11068374 -1.09231394 -1.07416556 -1.05500760 -1.03105105 
8.11130831e-05 -1.11050613 -1.09215504 -1.07403745 -1.05491111 -1.03093689 
6.57933225e-05 -1.11033121 -1.09199821 -1.07393142 -1.05481521 -1.03082413 
5.33669923e-05 -1.11015872 -1.09184322 -1.07382602 -1.05472350 -1.03071253 
4.32876128e-05 -1.10998844 -1.09169626 -1.07372113 -1.05463373 -1.03060192 
3.51119173e-05 -1.10982020 -1.09156112 -1.07361668 -1.05454429 -1.03049212 
2.84803587e-05 -1.10966499 -1.09143521 -1.07351447 -1.05445532 -1.03039905 
2.31012970e-05 -1.10952210 -1.09131789 -1.07341449 -1.05436683 -1.03032262 
1.87381742e-05 -1.10938005 -1.09120113 -1.07331485 -1.05427864 -1.03024667 
1.51991108e-05 -1.10923874 -1.09107597 -1.07321550 -1.05419205 -1.03017115 
1.23284674e-05 -1.10909807 -1.09095021 -1.07310606 -1.05410151 -1.03009596 
1.00000000e-05 -1.10895797 -1.09082496 -1.07299096 -1.05401120 -1.03002107 
8.11130831e-06 -1.10879563 -1.09068006 -1.07285142 -1.05389804 -1.02995476 
6.57933225e-06 -1.10863367 -1.09053555 -1.07271225 -1.05378517 -1.02988871 
5.33669923e-06 -1.10847206 -1.09039137 -1.07257339 -1.05367257 -1.02982290 
4.32876128e-06 -1.10831076 -1.09024749 -1.07243481 -1.05356023 -1.02975731 
3.51119173e-06 -1.10814972 -1.09010046 -1.07229651 -1.05344816 -1.02969191 
2.84803587e-06 -1.10794742 -1.08990354 -1.07212089 -1.05330680 -1.02962347 
2.31012970e-06 -1.10770407 -1.08967669 -1.07190817 -1.05313651 -1.02955200 
1.87381742e-06 -1.10746127 -1.08946902 -1.07171822 -1.05296665 -1.02948072 
1.51991108e-06 -1.10721899 -1.08926274 -1.07150839 -1.05279755 -1.02940961 
1.23284674e-06 -1.10697721 -1.08906642 -1.07129906 -1.05263193 -1.02933868 
1.00000000e-06 -1.10673594 -1.08886265 -1.07111732 -1.05246670 -1.02926792 
8.11130831e-07 -1.10633133 -1.08850299 -1.07079532 -1.05220561 -1.02917030 
6.57933225e-07 -1.10592810 -1.08811026 -1.07047999 -1.05193111 -1.02907291 
5.33669923e-07 -1.10552624 -1.08774682 -1.07017436 -1.05167168 -1.02897575 
4.32876128e-07 -1.10508853 -1.08740380 -1.06984664 -1.05142855 -1.02887882 
3.51119173e-07 -1.10463079 -1.08706701 -1.06950663 -1.05118598 -1.02878212 
2.84803587e-07 -1.10402018 -1.08657999 -1.06901597 -1.05084356 -1.02865543 
2.31012970e-07 -1.10325872 -1.08595125 -1.06841726 -1.05039318 -1.02849892 
1.87381742e-07 -1.10250137 -1.08530943 -1.06786609 -1.04986604 -1.02834285 
1.51991108e-07 -1.10181788 -1.08463893 -1.06734678 -1.04933671 -1.02818723 
1.23284674e-07 -1.10120520 -1.08397456 -1.06680054 -1.04880914 -1.02791937 
1.00000000e-07 -1.10059516 -1.08336488 -1.06621313 -1.04826835 -1.02738050 
P (bar) | log_CO2: -2σ | log_CO2: -1σ | log_CO2: median | log_CO2: +1σ | log_CO2: +2σ 
1.00000000e+02 -1.77346774 -1.51295943 -1.26650168 -1.04401266 -0.84989805 
8.11130831e+01 -1.74653260 -1.49707521 -1.25880721 -1.04093979 -0.84887895 
6.57933225e+01 -1.71959746 -1.48277280 -1.25246028 -1.03927863 -0.84785985 
5.33669923e+01 -1.69414857 -1.46753975 -1.24571261 -1.03732867 -0.84762196 
4.32876128e+01 -1.67283094 -1.45358336 -1.23755237 -1.03520686 -0.84769561 
3.51119173e+01 -1.64927954 -1.43801973 -1.23073451 -1.03287865 -0.84776926 
2.84803587e+01 -1.62368077 -1.42347774 -1.22313957 -1.03026950 -0.84744111 
2.31012970e+01 -1.59809354 -1.40675852 -1.21289589 -1.02670514 -0.84598470 
1.87381742e+01 -1.57250631 -1.38994376 -1.20399756 -1.02314079 -0.84452829 
1.51991108e+01 -1.54691909 -1.37427173 -1.19270561 -1.01969598 -0.84307188 
1.23284674e+01 -1.52133186 -1.35729918 -1.18305176 -1.01626656 -0.84161546 
1.00000000e+01 -1.49683689 -1.34193255 -1.17181543 -1.01277162 -0.84015905 
8.11130831e+00 -1.47359823 -1.32463442 -1.16115980 -1.00567818 -0.83747074 
6.57933225e+00 -1.45016416 -1.30692598 -1.15043615 -0.99955528 -0.83478242 
5.33669923e+00 -1.42721103 -1.28881118 -1.13799875 -0.99258607 -0.83209411 
4.32876128e+00 -1.40425790 -1.27069638 -1.12715870 -0.98606383 -0.82940579 
3.51119173e+00 -1.38130477 -1.25382636 -1.11598555 -0.97926580 -0.82671748 
2.84803587e+00 -1.35911521 -1.23656619 -1.10371937 -0.97193456 -0.82408914 
2.31012970e+00 -1.33829185 -1.21992889 -1.09129486 -0.96400506 -0.82199486 
1.87381742e+00 -1.31824231 -1.20309048 -1.07807860 -0.95486603 -0.81874789 
1.51991108e+00 -1.29797457 -1.18639164 -1.06568759 -0.94627174 -0.81252807 
1.23284674e+00 -1.27825916 -1.16956920 -1.05321705 -0.93825223 -0.80700725 
1.00000000e+00 -1.25826759 -1.15224644 -1.04075177 -0.93060539 -0.80292590 
8.11130831e-01 -1.24145584 -1.13741834 -1.02890329 -0.92203826 -0.79953777 
6.57933225e-01 -1.22464410 -1.12281084 -1.01710017 -0.91280682 -0.79374760 
5.33669923e-01 -1.20783236 -1.10805662 -1.00467525 -0.90464260 -0.78849168 
4.32876128e-01 -1.19102061 -1.09323304 -0.99238640 -0.89569544 -0.78452728 
3.51119173e-01 -1.17420887 -1.07828498 -0.97993012 -0.88688342 -0.78150228 
2.84803587e-01 -1.15885718 -1.06491442 -0.96912654 -0.87839842 -0.77562866 
2.31012970e-01 -1.14445439 -1.05318834 -0.95895856 -0.87015302 -0.76989253 
1.87381742e-01 -1.13153612 -1.04161993 -0.94879059 -0.86160952 -0.76415639 
1.51991108e-01 -1.12080133 -1.03005153 -0.93862262 -0.85308582 -0.75842025 
1.23284674e-01 -1.10885440 -1.01835568 -0.92845464 -0.84495542 -0.75268411 
1.00000000e-01 -1.09619916 -1.00620000 -0.91828667 -0.83697644 -0.74694797 
8.11130831e-02 -1.08837422 -0.99890571 -0.91117408 -0.83121620 -0.74267145 
6.57933225e-02 -1.08054928 -0.99161141 -0.90407296 -0.82539107 -0.73839492 
5.33669923e-02 -1.07354851 -0.98431712 -0.89639281 -0.81941793 -0.73411839 
4.32876128e-02 -1.06687036 -0.97698426 -0.88904556 -0.81344137 -0.72984186 
3.51119173e-02 -1.05922786 -0.96874740 -0.88177044 -0.80659306 -0.72556533 
2.84803587e-02 -1.05235890 -0.96329902 -0.87639569 -0.80108143 -0.72229450 
2.31012970e-02 -1.04930415 -0.95955014 -0.87339749 -0.79837035 -0.72002937 
1.87381742e-02 -1.04641451 -0.95669528 -0.87006942 -0.79535554 -0.71776424 
1.51991108e-02 -1.04352487 -0.95253021 -0.86693976 -0.79269777 -0.71549911 
1.23284674e-02 -1.04063523 -0.94845986 -0.86344462 -0.78973211 -0.71323398 
1.00000000e-02 -1.03774559 -0.94555580 -0.86008520 -0.78698418 -0.71096885 
8.11130831e-03 -1.03771215 -0.94562294 -0.86000214 -0.78688067 -0.71023366 
6.57933225e-03 -1.03733212 -0.94584923 -0.86025273 -0.78713278 -0.70905166 
5.33669923e-03 -1.03732119 -0.94576265 -0.86047964 -0.78718517 -0.70779337 
4.32876128e-03 -1.03731025 -0.94513243 -0.86033298 -0.78630185 -0.70777182 
3.51119173e-03 -1.03729931 -0.94468307 -0.86003473 -0.78529223 -0.70729288 
2.84803587e-03 -1.03808896 -0.94549443 -0.86095140 -0.78608895 -0.70689346 
2.31012970e-03 -1.03967921 -0.94735027 -0.86256846 -0.78748616 -0.70682981 
1.87381742e-03 -1.04126945 -0.94924006 -0.86437767 -0.78818784 -0.70629678 
1.51991108e-03 -1.04285969 -0.95112985 -0.86604144 -0.78884959 -0.70629380 
1.23284674e-03 -1.04444994 -0.95301964 -0.86786576 -0.78986637 -0.70642611 
1.00000000e-03 -1.04610733 -0.95490943 -0.86969008 -0.79008109 -0.70631744 
8.11130831e-04 -1.04863162 -0.95721726 -0.87154958 -0.79062458 -0.70594043 
6.57933225e-04 -1.05115591 -0.95952510 -0.87337586 -0.79175743 -0.70556342 
5.33669923e-04 -1.05368020 -0.96183294 -0.87524477 -0.79290423 -0.70518641 
