Chemical species: H2 He H2O CO2 CO CH4 H2S
P (bar) | log_H2: -2σ | log_H2: -1σ | log_H2: median | log_H2: +1σ | log_H2: +2σ 
1.00000000e+02 -0.07041076 -0.07020453 -0.06999314 -0.06980255 -0.06964312 
8.11130831e+01 -0.07039696 -0.07019200 -0.06998220 -0.06979299 -0.06963513 
6.57933225e+01 -0.07038290 -0.07017959 -0.06997138 -0.06978355 -0.06962721 
5.33669923e+01 -0.07036888 -0.07016731 -0.06996068 -0.06977465 -0.06961936 
4.32876128e+01 -0.07035500 -0.07015507 -0.06995026 -0.06976589 -0.06961158 
3.51119173e+01 -0.07034126 -0.07014296 -0.06993996 -0.06975716 -0.06960388 
2.84803587e+01 -0.07033008 -0.07013286 -0.06993135 -0.06974946 -0.06959762 
2.31012970e+01 -0.07032140 -0.07012474 -0.06992428 -0.06974286 -0.06959279 
1.87381742e+01 -0.07031278 -0.07011666 -0.06991747 -0.06973635 -0.06958687 
1.51991108e+01 -0.07030421 -0.07010852 -0.06991000 -0.06973016 -0.06958196 
1.23284674e+01 -0.07029569 -0.07010031 -0.06990328 -0.06972409 -0.06957709 
1.00000000e+01 -0.07028724 -0.07009212 -0.06989684 -0.06971786 -0.06957226 
8.11130831e+00 -0.07028591 -0.07009077 -0.06989567 -0.06971681 -0.06957150 
6.57933225e+00 -0.07028460 -0.07008943 -0.06989452 -0.06971574 -0.06957043 
5.33669923e+00 -0.07028330 -0.07008810 -0.06989338 -0.06971466 -0.06956937 
4.32876128e+00 -0.07028203 -0.07008679 -0.06989229 -0.06971361 -0.06956833 
3.51119173e+00 -0.07028080 -0.07008551 -0.06989120 -0.06971259 -0.06956731 
2.84803587e+00 -0.07027948 -0.07008439 -0.06988919 -0.06971118 -0.06956630 
2.31012970e+00 -0.07027810 -0.07008342 -0.06988641 -0.06970940 -0.06956491 
1.87381742e+00 -0.07027685 -0.07008219 -0.06988484 -0.06970712 -0.06956255 
1.51991108e+00 -0.07027581 -0.07008101 -0.06988286 -0.06970553 -0.06956052 
1.23284674e+00 -0.07027508 -0.07008012 -0.06988190 -0.06970452 -0.06955896 
1.00000000e+00 -0.07027483 -0.07007964 -0.06988134 -0.06970368 -0.06955810 
8.11130831e-01 -0.07026320 -0.07006652 -0.06986915 -0.06968693 -0.06953722 
6.57933225e-01 -0.07025122 -0.07005252 -0.06985572 -0.06967264 -0.06951778 
5.33669923e-01 -0.07023842 -0.07004371 -0.06984482 -0.06966104 -0.06950103 
4.32876128e-01 -0.07023127 -0.07003769 -0.06983619 -0.06965000 -0.06948749 
3.51119173e-01 -0.07022866 -0.07003357 -0.06983001 -0.06964461 -0.06948092 
2.84803587e-01 -0.07019982 -0.07000897 -0.06980717 -0.06962127 -0.06946411 
2.31012970e-01 -0.07014691 -0.06996463 -0.06976667 -0.06958652 -0.06942856 
1.87381742e-01 -0.07010764 -0.06992940 -0.06973617 -0.06956048 -0.06939714 
1.51991108e-01 -0.07007930 -0.06990315 -0.06971524 -0.06954297 -0.06938123 
1.23284674e-01 -0.07006310 -0.06989084 -0.06970426 -0.06953626 -0.06937613 
1.00000000e-01 -0.07006439 -0.06989436 -0.06970870 -0.06954142 -0.06938291 
8.11130831e-02 -0.06999661 -0.06983762 -0.06966131 -0.06950647 -0.06936558 
6.57933225e-02 -0.06994929 -0.06979704 -0.06962832 -0.06948475 -0.06934947 
5.33669923e-02 -0.06991902 -0.06977170 -0.06961180 -0.06947555 -0.06934611 
4.32876128e-02 -0.06990626 -0.06975930 -0.06960499 -0.06947449 -0.06935224 
3.51119173e-02 -0.06990502 -0.06975929 -0.06960935 -0.06948223 -0.06936453 
2.84803587e-02 -0.06990772 -0.06976236 -0.06961390 -0.06948863 -0.06937096 
2.31012970e-02 -0.06990467 -0.06976302 -0.06961779 -0.06949290 -0.06937532 
1.87381742e-02 -0.06990980 -0.06976791 -0.06962545 -0.06950148 -0.06938311 
1.51991108e-02 -0.06991797 -0.06977796 -0.06963559 -0.06951234 -0.06939326 
1.23284674e-02 -0.06993194 -0.06979062 -0.06964825 -0.06952494 -0.06940421 
1.00000000e-02 -0.06994648 -0.06980472 -0.06966265 -0.06953892 -0.06941708 
8.11130831e-03 -0.06996575 -0.06982265 -0.06967897 -0.06955309 -0.06942890 
6.57933225e-03 -0.06998627 -0.06984159 -0.06969597 -0.06956835 -0.06943992 
5.33669923e-03 -0.07000774 -0.06986140 -0.06971383 -0.06958318 -0.06945142 
4.32876128e-03 -0.07002932 -0.06988203 -0.06973254 -0.06959929 -0.06946394 
3.51119173e-03 -0.07005112 -0.06990311 -0.06975146 -0.06961617 -0.06948032 
2.84803587e-03 -0.07007332 -0.06992400 -0.06976976 -0.06963095 -0.06949590 
2.31012970e-03 -0.07009656 -0.06994384 -0.06978761 -0.06964559 -0.06951060 
1.87381742e-03 -0.07012137 -0.06996478 -0.06980533 -0.06966049 -0.06952229 
1.51991108e-03 -0.07014668 -0.06998635 -0.06982358 -0.06967712 -0.06953124 
1.23284674e-03 -0.07017160 -0.07000832 -0.06984145 -0.06969344 -0.06954005 
1.00000000e-03 -0.07019586 -0.07003182 -0.06986006 -0.06970827 -0.06955126 
8.11130831e-04 -0.07021697 -0.07005014 -0.06987446 -0.06971867 -0.06955900 
6.57933225e-04 -0.07023848 -0.07006822 -0.06988867 -0.06973013 -0.06956554 
5.33669923e-04 -0.07026031 -0.07008532 -0.06990351 -0.06974106 -0.06957211 
4.32876128e-04 -0.07028245 -0.07010455 -0.06991779 -0.06975139 -0.06957874 
3.51119173e-04 -0.07030491 -0.07012378 -0.06993225 -0.06976187 -0.06958540 
2.84803587e-04 -0.07032355 -0.07013935 -0.06994369 -0.06976966 -0.06959042 
2.31012970e-04 -0.07033823 -0.07015213 -0.06995243 -0.06977556 -0.06959375 
1.87381742e-04 -0.07035304 -0.07016432 -0.06996095 -0.06978160 -0.06959709 
1.51991108e-04 -0.07036800 -0.07017631 -0.06996964 -0.06978773 -0.06960045 
1.23284674e-04 -0.07038308 -0.07018867 -0.06997820 -0.06979430 -0.06960381 
1.00000000e-04 -0.07039831 -0.07020183 -0.06998681 -0.06980075 -0.06960719 
8.11130831e-05 -0.07040569 -0.07020839 -0.06999061 -0.06980363 -0.06960861 
6.57933225e-05 -0.07041310 -0.07021417 -0.06999442 -0.06980621 -0.06961003 
5.33669923e-05 -0.07042054 -0.07021980 -0.06999824 -0.06980880 -0.06961146 
4.32876128e-05 -0.07042801 -0.07022564 -0.07000207 -0.06981139 -0.06961289 
3.51119173e-05 -0.07043552 -0.07023144 -0.07000592 -0.06981399 -0.06961432 
2.84803587e-05 -0.07044076 -0.07023552 -0.07000873 -0.06981581 -0.06961537 
2.31012970e-05 -0.07044371 -0.07023778 -0.07001029 -0.06981684 -0.06961604 
1.87381742e-05 -0.07044667 -0.07024005 -0.07001186 -0.06981788 -0.06961671 
1.51991108e-05 -0.07044963 -0.07024232 -0.07001342 -0.06981896 -0.06961738 
1.23284674e-05 -0.07045260 -0.07024458 -0.07001499 -0.06982005 -0.06961805 
1.00000000e-05 -0.07045557 -0.07024679 -0.07001656 -0.06982113 -0.06961872 
8.11130831e-06 -0.07045669 -0.07024766 -0.07001721 -0.06982163 -0.06961915 
6.57933225e-06 -0.07045781 -0.07024853 -0.07001785 -0.06982213 -0.06961957 
5.33669923e-06 -0.07045892 -0.07024939 -0.07001850 -0.06982263 -0.06962000 
4.32876128e-06 -0.07046004 -0.07025026 -0.07001915 -0.06982313 -0.06962043 
3.51119173e-06 -0.07046116 -0.07025113 -0.07001980 -0.06982363 -0.06962085 
2.84803587e-06 -0.07046198 -0.07025179 -0.07002031 -0.06982405 -0.06962122 
2.31012970e-06 -0.07046249 -0.07025224 -0.07002069 -0.06982438 -0.06962154 
1.87381742e-06 -0.07046301 -0.07025268 -0.07002106 -0.06982472 -0.06962185 
1.51991108e-06 -0.07046353 -0.07025313 -0.07002144 -0.06982505 -0.06962216 
1.23284674e-06 -0.07046405 -0.07025358 -0.07002182 -0.06982539 -0.06962248 
1.00000000e-06 -0.07046456 -0.07025403 -0.07002220 -0.06982572 -0.06962279 
8.11130831e-07 -0.07046498 -0.07025442 -0.07002257 -0.06982607 -0.06962305 
6.57933225e-07 -0.07046540 -0.07025481 -0.07002294 -0.06982642 -0.06962331 
5.33669923e-07 -0.07046581 -0.07025520 -0.07002331 -0.06982676 -0.06962357 
4.32876128e-07 -0.07046623 -0.07025559 -0.07002368 -0.06982711 -0.06962383 
3.51119173e-07 -0.07046665 -0.07025598 -0.07002405 -0.06982746 -0.06962408 
2.84803587e-07 -0.07046712 -0.07025641 -0.07002447 -0.06982783 -0.06962431 
2.31012970e-07 -0.07046765 -0.07025689 -0.07002493 -0.06982823 -0.06962449 
1.87381742e-07 -0.07046818 -0.07025737 -0.07002539 -0.06982863 -0.06962467 
1.51991108e-07 -0.07046871 -0.07025785 -0.07002585 -0.06982908 -0.06962486 
1.23284674e-07 -0.07046924 -0.07025833 -0.07002629 -0.06982952 -0.06962504 
1.00000000e-07 -0.07046976 -0.07025882 -0.07002670 -0.06982996 -0.06962523 
P (bar) | log_He: -2σ | log_He: -1σ | log_He: median | log_He: +1σ | log_He: +2σ 
1.00000000e+02 -0.83996184 -0.83975560 -0.83954421 -0.83935363 -0.83919420 
8.11130831e+01 -0.83994804 -0.83974307 -0.83953328 -0.83934407 -0.83918620 
6.57933225e+01 -0.83993398 -0.83973067 -0.83952246 -0.83933463 -0.83917828 
5.33669923e+01 -0.83991996 -0.83971839 -0.83951175 -0.83932573 -0.83917044 
4.32876128e+01 -0.83990608 -0.83970615 -0.83950133 -0.83931696 -0.83916266 
3.51119173e+01 -0.83989234 -0.83969404 -0.83949104 -0.83930824 -0.83915496 
2.84803587e+01 -0.83988116 -0.83968394 -0.83948243 -0.83930054 -0.83914870 
2.31012970e+01 -0.83987248 -0.83967582 -0.83947536 -0.83929394 -0.83914387 
1.87381742e+01 -0.83986385 -0.83966774 -0.83946855 -0.83928743 -0.83913795 
1.51991108e+01 -0.83985529 -0.83965960 -0.83946108 -0.83928124 -0.83913304 
1.23284674e+01 -0.83984677 -0.83965139 -0.83945435 -0.83927517 -0.83912817 
1.00000000e+01 -0.83983832 -0.83964320 -0.83944792 -0.83926894 -0.83912334 
8.11130831e+00 -0.83983699 -0.83964185 -0.83944675 -0.83926789 -0.83912258 
6.57933225e+00 -0.83983568 -0.83964051 -0.83944559 -0.83926682 -0.83912151 
5.33669923e+00 -0.83983438 -0.83963918 -0.83944446 -0.83926574 -0.83912045 
4.32876128e+00 -0.83983311 -0.83963787 -0.83944336 -0.83926469 -0.83911941 
3.51119173e+00 -0.83983188 -0.83963659 -0.83944228 -0.83926367 -0.83911839 
2.84803587e+00 -0.83983056 -0.83963547 -0.83944027 -0.83926226 -0.83911737 
2.31012970e+00 -0.83982918 -0.83963450 -0.83943749 -0.83926048 -0.83911599 
1.87381742e+00 -0.83982793 -0.83963327 -0.83943592 -0.83925820 -0.83911363 
1.51991108e+00 -0.83982689 -0.83963209 -0.83943394 -0.83925661 -0.83911160 
1.23284674e+00 -0.83982616 -0.83963120 -0.83943298 -0.83925560 -0.83911004 
1.00000000e+00 -0.83982591 -0.83963072 -0.83943242 -0.83925476 -0.83910918 
8.11130831e-01 -0.83981428 -0.83961760 -0.83942023 -0.83923801 -0.83908830 
6.57933225e-01 -0.83980229 -0.83960360 -0.83940680 -0.83922372 -0.83906885 
5.33669923e-01 -0.83978950 -0.83959479 -0.83939590 -0.83921212 -0.83905211 
4.32876128e-01 -0.83978235 -0.83958877 -0.83938727 -0.83920107 -0.83903856 
3.51119173e-01 -0.83977974 -0.83958465 -0.83938109 -0.83919569 -0.83903200 
2.84803587e-01 -0.83975090 -0.83956005 -0.83935825 -0.83917235 -0.83901519 
2.31012970e-01 -0.83969798 -0.83951571 -0.83931774 -0.83913760 -0.83897964 
1.87381742e-01 -0.83965872 -0.83948048 -0.83928725 -0.83911156 -0.83894822 
1.51991108e-01 -0.83963038 -0.83945423 -0.83926631 -0.83909405 -0.83893230 
1.23284674e-01 -0.83961418 -0.83944192 -0.83925534 -0.83908734 -0.83892720 
1.00000000e-01 -0.83961547 -0.83944544 -0.83925977 -0.83909249 -0.83893399 
8.11130831e-02 -0.83954769 -0.83938870 -0.83921239 -0.83905755 -0.83891666 
6.57933225e-02 -0.83950037 -0.83934812 -0.83917940 -0.83903583 -0.83890055 
5.33669923e-02 -0.83947010 -0.83932278 -0.83916288 -0.83902663 -0.83889719 
4.32876128e-02 -0.83945734 -0.83931038 -0.83915607 -0.83902557 -0.83890332 
3.51119173e-02 -0.83945610 -0.83931037 -0.83916043 -0.83903331 -0.83891561 
2.84803587e-02 -0.83945880 -0.83931343 -0.83916498 -0.83903971 -0.83892204 
2.31012970e-02 -0.83945575 -0.83931410 -0.83916887 -0.83904397 -0.83892640 
1.87381742e-02 -0.83946088 -0.83931899 -0.83917653 -0.83905256 -0.83893418 
1.51991108e-02 -0.83946905 -0.83932904 -0.83918667 -0.83906342 -0.83894434 
1.23284674e-02 -0.83948302 -0.83934170 -0.83919933 -0.83907602 -0.83895529 
1.00000000e-02 -0.83949756 -0.83935579 -0.83921373 -0.83909000 -0.83896816 
8.11130831e-03 -0.83951683 -0.83937373 -0.83923005 -0.83910417 -0.83897998 
6.57933225e-03 -0.83953735 -0.83939267 -0.83924705 -0.83911943 -0.83899100 
5.33669923e-03 -0.83955881 -0.83941248 -0.83926491 -0.83913425 -0.83900250 
4.32876128e-03 -0.83958040 -0.83943311 -0.83928362 -0.83915037 -0.83901502 
3.51119173e-03 -0.83960220 -0.83945419 -0.83930254 -0.83916725 -0.83903140 
2.84803587e-03 -0.83962439 -0.83947508 -0.83932084 -0.83918203 -0.83904698 
2.31012970e-03 -0.83964764 -0.83949492 -0.83933869 -0.83919667 -0.83906168 
1.87381742e-03 -0.83967245 -0.83951586 -0.83935641 -0.83921157 -0.83907337 
1.51991108e-03 -0.83969776 -0.83953743 -0.83937466 -0.83922820 -0.83908232 
1.23284674e-03 -0.83972268 -0.83955940 -0.83939253 -0.83924452 -0.83909113 
1.00000000e-03 -0.83974694 -0.83958290 -0.83941114 -0.83925935 -0.83910234 
8.11130831e-04 -0.83976805 -0.83960122 -0.83942554 -0.83926975 -0.83911008 
6.57933225e-04 -0.83978956 -0.83961930 -0.83943975 -0.83928121 -0.83911662 
5.33669923e-04 -0.83981139 -0.83963640 -0.83945459 -0.83929214 -0.83912319 
4.32876128e-04 -0.83983353 -0.83965563 -0.83946886 -0.83930247 -0.83912982 
3.51119173e-04 -0.83985599 -0.83967486 -0.83948333 -0.83931295 -0.83913648 
2.84803587e-04 -0.83987463 -0.83969043 -0.83949477 -0.83932074 -0.83914149 
2.31012970e-04 -0.83988931 -0.83970321 -0.83950351 -0.83932664 -0.83914483 
1.87381742e-04 -0.83990412 -0.83971540 -0.83951203 -0.83933268 -0.83914817 
1.51991108e-04 -0.83991907 -0.83972739 -0.83952072 -0.83933881 -0.83915152 
1.23284674e-04 -0.83993416 -0.83973975 -0.83952928 -0.83934538 -0.83915489 
1.00000000e-04 -0.83994939 -0.83975291 -0.83953789 -0.83935183 -0.83915827 
8.11130831e-05 -0.83995677 -0.83975947 -0.83954169 -0.83935471 -0.83915969 
6.57933225e-05 -0.83996417 -0.83976525 -0.83954550 -0.83935729 -0.83916111 
5.33669923e-05 -0.83997161 -0.83977088 -0.83954932 -0.83935988 -0.83916254 
4.32876128e-05 -0.83997909 -0.83977672 -0.83955315 -0.83936247 -0.83916397 
3.51119173e-05 -0.83998659 -0.83978252 -0.83955700 -0.83936507 -0.83916540 
2.84803587e-05 -0.83999184 -0.83978660 -0.83955981 -0.83936689 -0.83916645 
2.31012970e-05 -0.83999479 -0.83978886 -0.83956137 -0.83936792 -0.83916712 
1.87381742e-05 -0.83999775 -0.83979113 -0.83956293 -0.83936896 -0.83916779 
1.51991108e-05 -0.84000071 -0.83979340 -0.83956450 -0.83937004 -0.83916846 
1.23284674e-05 -0.84000368 -0.83979566 -0.83956607 -0.83937112 -0.83916913 
1.00000000e-05 -0.84000665 -0.83979787 -0.83956764 -0.83937221 -0.83916980 
8.11130831e-06 -0.84000777 -0.83979874 -0.83956829 -0.83937271 -0.83917023 
6.57933225e-06 -0.84000889 -0.83979961 -0.83956893 -0.83937321 -0.83917065 
5.33669923e-06 -0.84001000 -0.83980047 -0.83956958 -0.83937371 -0.83917108 
4.32876128e-06 -0.84001112 -0.83980134 -0.83957023 -0.83937421 -0.83917150 
3.51119173e-06 -0.84001224 -0.83980221 -0.83957088 -0.83937471 -0.83917193 
2.84803587e-06 -0.84001306 -0.83980287 -0.83957139 -0.83937512 -0.83917230 
2.31012970e-06 -0.84001357 -0.83980331 -0.83957177 -0.83937546 -0.83917261 
1.87381742e-06 -0.84001409 -0.83980376 -0.83957214 -0.83937579 -0.83917293 
1.51991108e-06 -0.84001461 -0.83980421 -0.83957252 -0.83937613 -0.83917324 
1.23284674e-06 -0.84001512 -0.83980466 -0.83957290 -0.83937646 -0.83917355 
1.00000000e-06 -0.84001564 -0.83980510 -0.83957327 -0.83937680 -0.83917387 
8.11130831e-07 -0.84001606 -0.83980549 -0.83957365 -0.83937715 -0.83917413 
6.57933225e-07 -0.84001648 -0.83980588 -0.83957402 -0.83937749 -0.83917439 
5.33669923e-07 -0.84001689 -0.83980628 -0.83957439 -0.83937784 -0.83917464 
4.32876128e-07 -0.84001731 -0.83980667 -0.83957476 -0.83937819 -0.83917490 
3.51119173e-07 -0.84001773 -0.83980706 -0.83957513 -0.83937854 -0.83917516 
2.84803587e-07 -0.84001820 -0.83980749 -0.83957555 -0.83937891 -0.83917538 
2.31012970e-07 -0.84001873 -0.83980797 -0.83957601 -0.83937931 -0.83917557 
1.87381742e-07 -0.84001926 -0.83980845 -0.83957646 -0.83937971 -0.83917575 
1.51991108e-07 -0.84001978 -0.83980893 -0.83957692 -0.83938015 -0.83917593 
1.23284674e-07 -0.84002031 -0.83980941 -0.83957737 -0.83938060 -0.83917612 
1.00000000e-07 -0.84002084 -0.83980989 -0.83957777 -0.83938104 -0.83917630 
P (bar) | log_H2O: -2σ | log_H2O: -1σ | log_H2O: median | log_H2O: +1σ | log_H2O: +2σ 
1.00000000e+02 -2.62491459 -2.56461139 -2.51499975 -2.46327739 -2.42069271 
8.11130831e+01 -2.62778239 -2.56760296 -2.51807525 -2.46641538 -2.42393460 
6.57933225e+01 -2.63065019 -2.57059066 -2.52115075 -2.46956651 -2.42717537 
5.33669923e+01 -2.63351799 -2.57356076 -2.52422626 -2.47272554 -2.43041614 
4.32876128e+01 -2.63638579 -2.57653086 -2.52730176 -2.47588457 -2.43365692 
3.51119173e+01 -2.63925359 -2.57952063 -2.53037726 -2.47904360 -2.43689769 
2.84803587e+01 -2.64186470 -2.58213064 -2.53296482 -2.48167310 -2.43954719 
2.31012970e+01 -2.64421912 -2.58435903 -2.53506444 -2.48377306 -2.44160541 
1.87381742e+01 -2.64657354 -2.58648258 -2.53717423 -2.48587303 -2.44367840 
1.51991108e+01 -2.64892796 -2.58854185 -2.53944797 -2.48797299 -2.44583989 
1.23284674e+01 -2.65128238 -2.59070975 -2.54160408 -2.49007296 -2.44799050 
1.00000000e+01 -2.65363681 -2.59286795 -2.54374933 -2.49217292 -2.45008937 
8.11130831e+00 -2.65397601 -2.59316498 -2.54406765 -2.49248812 -2.45039731 
6.57933225e+00 -2.65431520 -2.59345249 -2.54438120 -2.49280332 -2.45070525 
5.33669923e+00 -2.65465440 -2.59374001 -2.54469475 -2.49311852 -2.45101319 
4.32876128e+00 -2.65499360 -2.59402752 -2.54500830 -2.49343372 -2.45132113 
3.51119173e+00 -2.65533280 -2.59431504 -2.54532184 -2.49374892 -2.45162908 
2.84803587e+00 -2.65549797 -2.59462845 -2.54561398 -2.49404002 -2.45189206 
2.31012970e+00 -2.65548911 -2.59490380 -2.54588471 -2.49430702 -2.45211008 
1.87381742e+00 -2.65548024 -2.59513157 -2.54615543 -2.49457402 -2.45226590 
1.51991108e+00 -2.65547138 -2.59535934 -2.54642616 -2.49484102 -2.45239929 
1.23284674e+00 -2.65546252 -2.59558710 -2.54669688 -2.49510801 -2.45263131 
1.00000000e+00 -2.65545365 -2.59581487 -2.54690745 -2.49537501 -2.45288440 
8.11130831e-01 -2.65671538 -2.59816937 -2.54880036 -2.49728261 -2.45477627 
6.57933225e-01 -2.66011020 -2.60055203 -2.55113163 -2.49924775 -2.45739372 
5.33669923e-01 -2.66305869 -2.60285515 -2.55303927 -2.50110008 -2.45953963 
4.32876128e-01 -2.66690394 -2.60510971 -2.55496080 -2.50268773 -2.46115227 
3.51119173e-01 -2.67145963 -2.60739125 -2.55671305 -2.50430788 -2.46273347 
2.84803587e-01 -2.67710672 -2.61193583 -2.56078687 -2.50897776 -2.46766137 
2.31012970e-01 -2.68451309 -2.61811371 -2.56760115 -2.51670084 -2.47595224 
1.87381742e-01 -2.69191947 -2.62414004 -2.57431731 -2.52427910 -2.48430071 
1.51991108e-01 -2.69900456 -2.63078158 -2.58114591 -2.53202602 -2.49261672 
1.23284674e-01 -2.70665929 -2.63663650 -2.58795277 -2.53945055 -2.50088483 
1.00000000e-01 -2.71413859 -2.64278835 -2.59447075 -2.54744201 -2.50906628 
8.11130831e-02 -2.72093838 -2.65119917 -2.60353897 -2.55781703 -2.51971816 
6.57933225e-02 -2.72743277 -2.65886589 -2.61213967 -2.56733115 -2.53002524 
5.33669923e-02 -2.73416770 -2.66644184 -2.62038980 -2.57785474 -2.53993418 
4.32876128e-02 -2.74055665 -2.67586856 -2.62904675 -2.58753763 -2.54906901 
3.51119173e-02 -2.74691596 -2.68411615 -2.63797984 -2.59688150 -2.55894183 
2.84803587e-02 -2.74892923 -2.68747401 -2.64154752 -2.60087279 -2.56233455 
2.31012970e-02 -2.74665352 -2.68541287 -2.63911013 -2.59891534 -2.56024902 
1.87381742e-02 -2.74427715 -2.68315532 -2.63684937 -2.59685560 -2.55857811 
1.51991108e-02 -2.74190077 -2.68086437 -2.63463694 -2.59456842 -2.55676459 
1.23284674e-02 -2.73952440 -2.67846146 -2.63196806 -2.59253727 -2.55523629 
1.00000000e-02 -2.73714802 -2.67577694 -2.62958896 -2.59053655 -2.55338895 
8.11130831e-03 -2.73101812 -2.66906566 -2.62250506 -2.58332710 -2.54623154 
6.57933225e-03 -2.72508024 -2.66189647 -2.61573133 -2.57636091 -2.53907413 
5.33669923e-03 -2.71933489 -2.65520860 -2.60849408 -2.56928641 -2.53191672 
4.32876128e-03 -2.71335168 -2.64795169 -2.60125335 -2.56197172 -2.52475931 
3.51119173e-03 -2.70784265 -2.64083002 -2.59395303 -2.55470049 -2.51760190 
2.84803587e-03 -2.70128357 -2.63449434 -2.58709482 -2.54765544 -2.51027350 
2.31012970e-03 -2.69609867 -2.62825569 -2.58022883 -2.54117709 -2.50277411 
1.87381742e-03 -2.69142788 -2.62209990 -2.57355265 -2.53381803 -2.49527473 
1.51991108e-03 -2.68675709 -2.61530603 -2.56665574 -2.52628635 -2.48777791 
1.23284674e-03 -2.68208630 -2.60888416 -2.55968912 -2.51924747 -2.48156509 
1.00000000e-03 -2.67725365 -2.60285300 -2.55289550 -2.51163625 -2.47398838 
8.11130831e-04 -2.67404187 -2.59830233 -2.54775104 -2.50571719 -2.46767002 
6.57933225e-04 -2.67083009 -2.59387476 -2.54263450 -2.50004665 -2.46131756 
5.33669923e-04 -2.66761831 -2.58945464 -2.53774204 -2.49397982 -2.45544893 
