P (bar) | T: -2σ | T: -1σ  | T: median | T: +1σ | T: +2σ 
1.00000000e+02 1.69347421e+03 1.87456455e+03 2.08445706e+03 2.37615559e+03 2.65514508e+03 
8.11130831e+01 1.69347310e+03 1.87456290e+03 2.08445467e+03 2.37615230e+03 2.65514101e+03 
6.57933225e+01 1.69346918e+03 1.87455710e+03 2.08444626e+03 2.37614074e+03 2.65512672e+03 
5.33669923e+01 1.69345721e+03 1.87453941e+03 2.08442059e+03 2.37610543e+03 2.65508305e+03 
4.32876128e+01 1.69342454e+03 1.87449111e+03 2.08435049e+03 2.37600906e+03 2.65496386e+03 
3.51119173e+01 1.69334423e+03 1.87437238e+03 2.08417820e+03 2.37577215e+03 2.65467087e+03 
2.84803587e+01 1.69316583e+03 1.87410865e+03 2.08379548e+03 2.37524591e+03 2.65402003e+03 
2.31012970e+01 1.69280671e+03 1.87357775e+03 2.08302506e+03 2.37418656e+03 2.65270988e+03 
1.87381742e+01 1.69214962e+03 1.87260636e+03 2.08161541e+03 2.37224828e+03 2.65031269e+03 
1.51991108e+01 1.69105294e+03 1.87098509e+03 2.07926270e+03 2.36901326e+03 2.64631175e+03 
1.23284674e+01 1.68937591e+03 1.86850588e+03 2.07566495e+03 2.36406631e+03 2.64019357e+03 
1.00000000e+01 1.68701327e+03 1.86501310e+03 2.07059637e+03 2.35709693e+03 2.63157414e+03 
8.11130831e+00 1.68392585e+03 1.86044887e+03 2.06397293e+03 2.34798961e+03 2.62031058e+03 
6.57933225e+00 1.68015284e+03 1.85488963e+03 2.05587867e+03 2.33701831e+03 2.60654579e+03 
5.33669923e+00 1.67579947e+03 1.84848405e+03 2.04701213e+03 2.32459258e+03 2.59066374e+03 
4.32876128e+00 1.67017050e+03 1.84131883e+03 2.03730581e+03 2.31091211e+03 2.57317795e+03 
3.51119173e+00 1.66402094e+03 1.83352138e+03 2.02641321e+03 2.29638117e+03 2.55460512e+03 
2.84803587e+00 1.65765308e+03 1.82544713e+03 2.01503591e+03 2.28133371e+03 2.53408577e+03 
2.31012970e+00 1.65116673e+03 1.81722264e+03 2.00344691e+03 2.26588860e+03 2.51309859e+03 
1.87381742e+00 1.64462284e+03 1.80892519e+03 1.99166818e+03 2.25030646e+03 2.49192522e+03 
1.51991108e+00 1.63861353e+03 1.80059602e+03 1.97952066e+03 2.23466477e+03 2.47075482e+03 
1.23284674e+00 1.63328646e+03 1.79248080e+03 1.96753450e+03 2.21899992e+03 2.45062878e+03 
1.00000000e+00 1.62648498e+03 1.78449662e+03 1.95584488e+03 2.20332701e+03 2.43049237e+03 
8.11130831e-01 1.61968241e+03 1.77657128e+03 1.94466612e+03 2.18755334e+03 2.41035275e+03 
6.57933225e-01 1.61287954e+03 1.76797684e+03 1.93298070e+03 2.17172092e+03 2.39021222e+03 
5.33669923e-01 1.60607667e+03 1.75938239e+03 1.92121837e+03 2.15574605e+03 2.37007169e+03 
4.32876128e-01 1.59927380e+03 1.75085569e+03 1.90945605e+03 2.13964855e+03 2.34993117e+03 
3.51119173e-01 1.59247093e+03 1.74200925e+03 1.89769373e+03 2.12300751e+03 2.32979064e+03 
2.84803587e-01 1.58566806e+03 1.73373846e+03 1.88593140e+03 2.10687162e+03 2.30965012e+03 
2.31012970e-01 1.57886519e+03 1.72527147e+03 1.87416908e+03 2.09067850e+03 2.28950959e+03 
1.87381742e-01 1.57302865e+03 1.71674113e+03 1.86260064e+03 2.07504552e+03 2.26936907e+03 
1.51991108e-01 1.56767809e+03 1.70805234e+03 1.85158155e+03 2.05975309e+03 2.24922854e+03 
1.23284674e-01 1.56232754e+03 1.69968674e+03 1.84007456e+03 2.04319022e+03 2.22908801e+03 
1.00000000e-01 1.55697698e+03 1.69144524e+03 1.82875499e+03 2.02627008e+03 2.20894749e+03 
8.11130831e-02 1.55181957e+03 1.68272060e+03 1.81739256e+03 2.00933325e+03 2.18843147e+03 
6.57933225e-02 1.54705154e+03 1.67439534e+03 1.80525805e+03 1.99327268e+03 2.16863269e+03 
5.33669923e-02 1.54228350e+03 1.66583389e+03 1.79326323e+03 1.97735686e+03 2.14852591e+03 
4.32876128e-02 1.53751547e+03 1.65727286e+03 1.78118575e+03 1.96144104e+03 2.12838539e+03 
3.51119173e-02 1.53274744e+03 1.64934363e+03 1.76940798e+03 1.94515371e+03 2.10824486e+03 
2.84803587e-02 1.52623832e+03 1.64009288e+03 1.75708112e+03 1.92959005e+03 2.08810433e+03 
2.31012970e-02 1.51956424e+03 1.63178556e+03 1.74538911e+03 1.91412340e+03 2.06796381e+03 
1.87381742e-02 1.51417251e+03 1.62354373e+03 1.73369709e+03 1.89848053e+03 2.04782328e+03 
1.51991108e-02 1.50882196e+03 1.61472863e+03 1.72200508e+03 1.88283765e+03 2.02768276e+03 
1.23284674e-02 1.50347140e+03 1.60570396e+03 1.71031306e+03 1.86714787e+03 2.00754223e+03 
1.00000000e-02 1.49812084e+03 1.59710635e+03 1.69837688e+03 1.85102872e+03 1.98791802e+03 
8.11130831e-03 1.49277028e+03 1.58841905e+03 1.68659569e+03 1.83513689e+03 1.96860896e+03 
6.57933225e-03 1.48741972e+03 1.57961083e+03 1.67490653e+03 1.81871543e+03 1.94929991e+03 
5.33669923e-03 1.48206917e+03 1.57079372e+03 1.66340812e+03 1.80128888e+03 1.92999085e+03 
4.32876128e-03 1.47671861e+03 1.56229072e+03 1.65139100e+03 1.78514067e+03 1.91046943e+03 
3.51119173e-03 1.47078939e+03 1.55340912e+03 1.63977879e+03 1.76950731e+03 1.89017788e+03 
2.84803587e-03 1.46384401e+03 1.54464621e+03 1.62809543e+03 1.75335358e+03 1.87002574e+03 
2.31012970e-03 1.45789562e+03 1.53607747e+03 1.61595543e+03 1.73664621e+03 1.85050734e+03 
1.87381742e-03 1.44995327e+03 1.52728318e+03 1.60451930e+03 1.71970335e+03 1.83060798e+03 
1.51991108e-03 1.44480071e+03 1.51907206e+03 1.59339290e+03 1.70329817e+03 1.81098061e+03 
1.23284674e-03 1.43919954e+03 1.51064641e+03 1.58232988e+03 1.68760381e+03 1.79195215e+03 
1.00000000e-03 1.43276531e+03 1.50215089e+03 1.57124179e+03 1.67231276e+03 1.77243375e+03 
8.11130831e-04 1.42575072e+03 1.49321034e+03 1.55965310e+03 1.65736214e+03 1.75291535e+03 
6.57933225e-04 1.41989685e+03 1.48352580e+03 1.54837172e+03 1.64178011e+03 1.73192951e+03 
5.33669923e-04 1.41328147e+03 1.47431009e+03 1.53638509e+03 1.62497495e+03 1.71156586e+03 
4.32876128e-04 1.40734378e+03 1.46525905e+03 1.52484863e+03 1.60722444e+03 1.69148795e+03 
3.51119173e-04 1.40179180e+03 1.45707686e+03 1.51359922e+03 1.59159812e+03 1.66985300e+03 
2.84803587e-04 1.39415993e+03 1.44828489e+03 1.50225518e+03 1.57676055e+03 1.65140096e+03 
2.31012970e-04 1.38772570e+03 1.43947475e+03 1.49159038e+03 1.55996831e+03 1.63294891e+03 
1.87381742e-04 1.38006470e+03 1.43058173e+03 1.47978959e+03 1.54423308e+03 1.61449687e+03 
1.51991108e-04 1.37275322e+03 1.42345201e+03 1.46896100e+03 1.52841722e+03 1.59440647e+03 
1.23284674e-04 1.36505481e+03 1.41448972e+03 1.45724983e+03 1.51252499e+03 1.57482152e+03 
1.00000000e-04 1.35934883e+03 1.40431646e+03 1.44598046e+03 1.49610855e+03 1.55606278e+03 
8.11130831e-05 1.34875033e+03 1.39482227e+03 1.43523494e+03 1.48095488e+03 1.53647845e+03 
6.57933225e-05 1.34126051e+03 1.38615364e+03 1.42450234e+03 1.46720365e+03 1.51623572e+03 
5.33669923e-05 1.33272572e+03 1.37604876e+03 1.41254499e+03 1.45261432e+03 1.49725873e+03 
4.32876128e-05 1.32500019e+03 1.36642955e+03 1.40151800e+03 1.43888610e+03 1.47983655e+03 
3.51119173e-05 1.31370007e+03 1.35665930e+03 1.39049924e+03 1.42499236e+03 1.46085713e+03 
2.84803587e-05 1.30629126e+03 1.34732346e+03 1.37960125e+03 1.41098885e+03 1.44340997e+03 
2.31012970e-05 1.29650507e+03 1.33763498e+03 1.36887561e+03 1.39803632e+03 1.42649061e+03 
1.87381742e-05 1.28692080e+03 1.32795130e+03 1.35892879e+03 1.38548417e+03 1.41260884e+03 
1.51991108e-05 1.27767376e+03 1.32017291e+03 1.34892220e+03 1.37481187e+03 1.39999966e+03 
1.23284674e-05 1.27006271e+03 1.31261244e+03 1.34107717e+03 1.36639320e+03 1.38849658e+03 
1.00000000e-05 1.26310144e+03 1.30588136e+03 1.33403765e+03 1.35956290e+03 1.38103348e+03 
8.11130831e-06 1.25744332e+03 1.30057246e+03 1.32884040e+03 1.35431893e+03 1.37555729e+03 
6.57933225e-06 1.25452072e+03 1.29640754e+03 1.32511942e+03 1.35066277e+03 1.37160016e+03 
5.33669923e-06 1.25198572e+03 1.29396223e+03 1.32285307e+03 1.34800292e+03 1.36913890e+03 
4.32876128e-06 1.25028677e+03 1.29229509e+03 1.32156672e+03 1.34685553e+03 1.36792629e+03 
3.51119173e-06 1.24935823e+03 1.29133023e+03 1.32057765e+03 1.34622795e+03 1.36711656e+03 
2.84803587e-06 1.24889696e+03 1.29080593e+03 1.32013320e+03 1.34597536e+03 1.36671432e+03 
2.31012970e-06 1.24868931e+03 1.29053112e+03 1.31996980e+03 1.34579033e+03 1.36653324e+03 
1.87381742e-06 1.24860483e+03 1.29041932e+03 1.31990945e+03 1.34571506e+03 1.36645957e+03 
1.51991108e-06 1.24857389e+03 1.29037836e+03 1.31989189e+03 1.34568748e+03 1.36643258e+03 
1.23284674e-06 1.24856376e+03 1.29036496e+03 1.31988614e+03 1.34567846e+03 1.36642375e+03 
1.00000000e-06 1.24856087e+03 1.29036114e+03 1.31988450e+03 1.34567589e+03 1.36642123e+03 
8.11130831e-07 1.24856024e+03 1.29036031e+03 1.31988415e+03 1.34567533e+03 1.36642068e+03 
6.57933225e-07 1.24856024e+03 1.29036031e+03 1.31988415e+03 1.34567533e+03 1.36642068e+03 
5.33669923e-07 1.24856024e+03 1.29036031e+03 1.31988415e+03 1.34567533e+03 1.36642068e+03 
4.32876128e-07 1.24856024e+03 1.29036031e+03 1.31988415e+03 1.34567533e+03 1.36642068e+03 
3.51119173e-07 1.24856024e+03 1.29036031e+03 1.31988415e+03 1.34567533e+03 1.36642068e+03 
2.84803587e-07 1.24856024e+03 1.29036031e+03 1.31988415e+03 1.34567533e+03 1.36642068e+03 
2.31012970e-07 1.24856024e+03 1.29036031e+03 1.31988415e+03 1.34567533e+03 1.36642068e+03 
1.87381742e-07 1.24856024e+03 1.29036031e+03 1.31988415e+03 1.34567533e+03 1.36642068e+03 
1.51991108e-07 1.24856024e+03 1.29036031e+03 1.31988415e+03 1.34567533e+03 1.36642068e+03 
1.23284674e-07 1.24856024e+03 1.29036031e+03 1.31988415e+03 1.34567533e+03 1.36642068e+03 
1.00000000e-07 1.24856024e+03 1.29036031e+03 1.31988415e+03 1.34567533e+03 1.36642068e+03 
