Chemical species: H2 He H2O CO2 K CO
P (bar) | log_H2: -2σ | log_H2: -1σ | log_H2: median | log_H2: +1σ | log_H2: +2σ 
1.00000000e+02 -0.07643872 -0.07470128 -0.07346965 -0.07242931 -0.07155860 
8.11130831e+01 -0.07643830 -0.07470104 -0.07346952 -0.07242924 -0.07155858 
6.57933225e+01 -0.07643787 -0.07470080 -0.07346940 -0.07242917 -0.07155857 
5.33669923e+01 -0.07643745 -0.07470056 -0.07346928 -0.07242910 -0.07155855 
4.32876128e+01 -0.07643702 -0.07470032 -0.07346915 -0.07242903 -0.07155854 
3.51119173e+01 -0.07643660 -0.07470008 -0.07346903 -0.07242896 -0.07155852 
2.84803587e+01 -0.07643426 -0.07469869 -0.07346821 -0.07242843 -0.07155825 
2.31012970e+01 -0.07643003 -0.07469614 -0.07346670 -0.07242745 -0.07155772 
1.87381742e+01 -0.07642579 -0.07469360 -0.07346518 -0.07242646 -0.07155719 
1.51991108e+01 -0.07642155 -0.07469106 -0.07346367 -0.07242547 -0.07155666 
1.23284674e+01 -0.07641732 -0.07468852 -0.07346216 -0.07242448 -0.07155613 
1.00000000e+01 -0.07641309 -0.07468598 -0.07346064 -0.07242350 -0.07155560 
8.11130831e+00 -0.07638584 -0.07466788 -0.07344863 -0.07241554 -0.07155105 
6.57933225e+00 -0.07635869 -0.07464954 -0.07343646 -0.07240759 -0.07154650 
5.33669923e+00 -0.07633162 -0.07463126 -0.07342434 -0.07239966 -0.07154196 
4.32876128e+00 -0.07630464 -0.07461302 -0.07341295 -0.07239175 -0.07153733 
3.51119173e+00 -0.07627776 -0.07459649 -0.07340158 -0.07238385 -0.07153271 
2.84803587e+00 -0.07623875 -0.07456936 -0.07338077 -0.07236787 -0.07152189 
2.31012970e+00 -0.07618778 -0.07452962 -0.07335054 -0.07234387 -0.07150494 
1.87381742e+00 -0.07613715 -0.07448885 -0.07331919 -0.07232000 -0.07148806 
1.51991108e+00 -0.07608683 -0.07444775 -0.07328908 -0.07229628 -0.07147032 
1.23284674e+00 -0.07603963 -0.07440958 -0.07325862 -0.07227327 -0.07145268 
1.00000000e+00 -0.07599353 -0.07437322 -0.07322835 -0.07225090 -0.07143514 
8.11130831e-01 -0.07596877 -0.07435194 -0.07320982 -0.07223525 -0.07142134 
6.57933225e-01 -0.07594410 -0.07433074 -0.07319136 -0.07221977 -0.07140761 
5.33669923e-01 -0.07591950 -0.07430960 -0.07317297 -0.07220434 -0.07139393 
4.32876128e-01 -0.07589499 -0.07428855 -0.07315465 -0.07218898 -0.07138032 
3.51119173e-01 -0.07587055 -0.07426756 -0.07313639 -0.07217367 -0.07136676 
2.84803587e-01 -0.07584931 -0.07425039 -0.07312179 -0.07216066 -0.07135631 
2.31012970e-01 -0.07583123 -0.07423508 -0.07311080 -0.07214997 -0.07134894 
1.87381742e-01 -0.07581491 -0.07422275 -0.07309984 -0.07214013 -0.07134158 
1.51991108e-01 -0.07579980 -0.07421178 -0.07308891 -0.07213056 -0.07133425 
1.23284674e-01 -0.07578471 -0.07420084 -0.07307799 -0.07212167 -0.07132693 
1.00000000e-01 -0.07576966 -0.07418841 -0.07306711 -0.07211281 -0.07131958 
8.11130831e-02 -0.07576483 -0.07418381 -0.07306251 -0.07210864 -0.07131512 
6.57933225e-02 -0.07576000 -0.07417858 -0.07305792 -0.07210446 -0.07131067 
5.33669923e-02 -0.07575518 -0.07417311 -0.07305310 -0.07210029 -0.07130622 
4.32876128e-02 -0.07575036 -0.07416828 -0.07304817 -0.07209630 -0.07130178 
3.51119173e-02 -0.07574556 -0.07416457 -0.07304336 -0.07209237 -0.07129734 
2.84803587e-02 -0.07574255 -0.07416233 -0.07304095 -0.07209002 -0.07129472 
2.31012970e-02 -0.07574136 -0.07416157 -0.07304014 -0.07208925 -0.07129390 
1.87381742e-02 -0.07574018 -0.07416082 -0.07303934 -0.07208848 -0.07129308 
1.51991108e-02 -0.07573903 -0.07416009 -0.07303855 -0.07208773 -0.07129226 
1.23284674e-02 -0.07573792 -0.07415932 -0.07303779 -0.07208699 -0.07129141 
1.00000000e-02 -0.07573688 -0.07415855 -0.07303705 -0.07208626 -0.07129055 
8.11130831e-03 -0.07573148 -0.07415583 -0.07303488 -0.07208472 -0.07128988 
6.57933225e-03 -0.07572624 -0.07415320 -0.07303279 -0.07208321 -0.07128922 
5.33669923e-03 -0.07572121 -0.07415054 -0.07303079 -0.07208178 -0.07128858 
4.32876128e-03 -0.07571652 -0.07414765 -0.07302895 -0.07208044 -0.07128796 
3.51119173e-03 -0.07571234 -0.07414504 -0.07302734 -0.07207925 -0.07128738 
2.84803587e-03 -0.07566715 -0.07412884 -0.07301662 -0.07207316 -0.07128383 
2.31012970e-03 -0.07557074 -0.07409920 -0.07300095 -0.07206254 -0.07127394 
1.87381742e-03 -0.07548295 -0.07406564 -0.07298595 -0.07204941 -0.07126715 
1.51991108e-03 -0.07544406 -0.07403701 -0.07296911 -0.07203674 -0.07126161 
1.23284674e-03 -0.07540875 -0.07401097 -0.07295382 -0.07202541 -0.07125664 
1.00000000e-03 -0.07537865 -0.07399298 -0.07294162 -0.07201462 -0.07125253 
8.11130831e-04 -0.07514489 -0.07383479 -0.07282383 -0.07191902 -0.07120050 
6.57933225e-04 -0.07486468 -0.07366943 -0.07271271 -0.07183595 -0.07115115 
5.33669923e-04 -0.07468139 -0.07354002 -0.07261874 -0.07176294 -0.07110762 
4.32876128e-04 -0.07446893 -0.07339615 -0.07251716 -0.07170479 -0.07105965 
3.51119173e-04 -0.07433459 -0.07328038 -0.07243134 -0.07165570 -0.07102578 
2.84803587e-04 -0.07403406 -0.07301500 -0.07222104 -0.07148303 -0.07091530 
2.31012970e-04 -0.07359540 -0.07264663 -0.07190546 -0.07121987 -0.07071419 
1.87381742e-04 -0.07323972 -0.07234625 -0.07164308 -0.07100642 -0.07053460 
1.51991108e-04 -0.07294873 -0.07207340 -0.07142199 -0.07082501 -0.07038692 
1.23284674e-04 -0.07271958 -0.07186394 -0.07125155 -0.07067608 -0.07026287 
1.00000000e-04 -0.07257883 -0.07173219 -0.07112555 -0.07057115 -0.07013995 
8.11130831e-05 -0.07230070 -0.07139397 -0.07081330 -0.07027992 -0.06987208 
6.57933225e-05 -0.07210381 -0.07112834 -0.07057566 -0.07006829 -0.06967347 
5.33669923e-05 -0.07193124 -0.07095931 -0.07040543 -0.06991920 -0.06953688 
4.32876128e-05 -0.07185216 -0.07087501 -0.07030490 -0.06983033 -0.06946025 
3.51119173e-05 -0.07185411 -0.07088490 -0.07027046 -0.06979465 -0.06941741 
2.84803587e-05 -0.07183746 -0.07085360 -0.07023130 -0.06975324 -0.06935260 
2.31012970e-05 -0.07183049 -0.07082229 -0.07018099 -0.06971881 -0.06928419 
1.87381742e-05 -0.07185959 -0.07083609 -0.07018458 -0.06971547 -0.06926924 
1.51991108e-05 -0.07199434 -0.07091535 -0.07025035 -0.06974203 -0.06927836 
1.23284674e-05 -0.07216587 -0.07106299 -0.07035499 -0.06982042 -0.06933019 
1.00000000e-05 -0.07239092 -0.07125170 -0.07050762 -0.06994286 -0.06940392 
8.11130831e-06 -0.07263757 -0.07143049 -0.07065841 -0.07004737 -0.06948985 
6.57933225e-06 -0.07292367 -0.07164389 -0.07085378 -0.07018652 -0.06961734 
5.33669923e-06 -0.07311298 -0.07189623 -0.07106090 -0.07035409 -0.06977420 
4.32876128e-06 -0.07349278 -0.07219748 -0.07132361 -0.07055969 -0.06995869 
3.51119173e-06 -0.07376649 -0.07252128 -0.07159802 -0.07079479 -0.07017245 
2.84803587e-06 -0.07410683 -0.07280434 -0.07184998 -0.07099633 -0.07035612 
2.31012970e-06 -0.07447621 -0.07308382 -0.07207509 -0.07117696 -0.07053171 
1.87381742e-06 -0.07482362 -0.07336383 -0.07232099 -0.07138502 -0.07070312 
1.51991108e-06 -0.07522799 -0.07370552 -0.07257557 -0.07161411 -0.07088684 
1.23284674e-06 -0.07564920 -0.07400694 -0.07284948 -0.07182575 -0.07109527 
1.00000000e-06 -0.07613787 -0.07434769 -0.07314979 -0.07207496 -0.07130693 
8.11130831e-07 -0.07633416 -0.07452745 -0.07329201 -0.07218867 -0.07139449 
6.57933225e-07 -0.07653340 -0.07467313 -0.07343874 -0.07230245 -0.07150847 
5.33669923e-07 -0.07676875 -0.07486118 -0.07360162 -0.07241912 -0.07162571 
4.32876128e-07 -0.07698305 -0.07505885 -0.07374546 -0.07254178 -0.07173687 
3.51119173e-07 -0.07720925 -0.07525446 -0.07389444 -0.07267337 -0.07186381 
2.84803587e-07 -0.07739912 -0.07536293 -0.07400710 -0.07276718 -0.07194267 
2.31012970e-07 -0.07748237 -0.07542180 -0.07405568 -0.07280882 -0.07197201 
1.87381742e-07 -0.07755387 -0.07548555 -0.07410833 -0.07285124 -0.07201080 
1.51991108e-07 -0.07760654 -0.07555106 -0.07416524 -0.07290013 -0.07205753 
1.23284674e-07 -0.07767980 -0.07562197 -0.07422019 -0.07294786 -0.07209952 
1.00000000e-07 -0.07776098 -0.07569436 -0.07428009 -0.07300452 -0.07213471 
P (bar) | log_He: -2σ | log_He: -1σ | log_He: median | log_He: +1σ | log_He: +2σ 
1.00000000e+02 -0.84598980 -0.84425236 -0.84302072 -0.84198039 -0.84110968 
8.11130831e+01 -0.84598938 -0.84425212 -0.84302060 -0.84198032 -0.84110966 
6.57933225e+01 -0.84598895 -0.84425188 -0.84302048 -0.84198025 -0.84110965 
5.33669923e+01 -0.84598853 -0.84425164 -0.84302035 -0.84198018 -0.84110963 
4.32876128e+01 -0.84598810 -0.84425140 -0.84302023 -0.84198011 -0.84110962 
3.51119173e+01 -0.84598768 -0.84425116 -0.84302011 -0.84198004 -0.84110960 
2.84803587e+01 -0.84598534 -0.84424976 -0.84301929 -0.84197951 -0.84110933 
2.31012970e+01 -0.84598110 -0.84424722 -0.84301778 -0.84197852 -0.84110880 
1.87381742e+01 -0.84597687 -0.84424468 -0.84301626 -0.84197754 -0.84110827 
1.51991108e+01 -0.84597263 -0.84424214 -0.84301475 -0.84197655 -0.84110774 
1.23284674e+01 -0.84596840 -0.84423960 -0.84301324 -0.84197556 -0.84110721 
1.00000000e+01 -0.84596417 -0.84423706 -0.84301172 -0.84197458 -0.84110668 
8.11130831e+00 -0.84593692 -0.84421896 -0.84299971 -0.84196662 -0.84110213 
6.57933225e+00 -0.84590977 -0.84420062 -0.84298754 -0.84195867 -0.84109758 
5.33669923e+00 -0.84588270 -0.84418233 -0.84297542 -0.84195074 -0.84109303 
4.32876128e+00 -0.84585572 -0.84416410 -0.84296402 -0.84194283 -0.84108841 
3.51119173e+00 -0.84582884 -0.84414756 -0.84295265 -0.84193493 -0.84108379 
2.84803587e+00 -0.84578982 -0.84412044 -0.84293185 -0.84191895 -0.84107297 
2.31012970e+00 -0.84573886 -0.84408069 -0.84290162 -0.84189495 -0.84105602 
1.87381742e+00 -0.84568822 -0.84403993 -0.84287026 -0.84187108 -0.84103913 
1.51991108e+00 -0.84563791 -0.84399883 -0.84284016 -0.84184736 -0.84102140 
1.23284674e+00 -0.84559071 -0.84396066 -0.84280970 -0.84182435 -0.84100376 
1.00000000e+00 -0.84554460 -0.84392430 -0.84277943 -0.84180197 -0.84098621 
8.11130831e-01 -0.84551985 -0.84390302 -0.84276090 -0.84178633 -0.84097242 
6.57933225e-01 -0.84549518 -0.84388182 -0.84274244 -0.84177085 -0.84095869 
5.33669923e-01 -0.84547058 -0.84386068 -0.84272405 -0.84175542 -0.84094501 
4.32876128e-01 -0.84544607 -0.84383962 -0.84270573 -0.84174006 -0.84093140 
3.51119173e-01 -0.84542163 -0.84381864 -0.84268747 -0.84172475 -0.84091784 
2.84803587e-01 -0.84540038 -0.84380147 -0.84267287 -0.84171174 -0.84090739 
2.31012970e-01 -0.84538231 -0.84378615 -0.84266188 -0.84170105 -0.84090002 
1.87381742e-01 -0.84536599 -0.84377382 -0.84265092 -0.84169121 -0.84089266 
1.51991108e-01 -0.84535087 -0.84376286 -0.84263998 -0.84168163 -0.84088532 
1.23284674e-01 -0.84533579 -0.84375191 -0.84262907 -0.84167275 -0.84087800 
1.00000000e-01 -0.84532074 -0.84373949 -0.84261818 -0.84166389 -0.84087066 
8.11130831e-02 -0.84531591 -0.84373489 -0.84261359 -0.84165971 -0.84086620 
6.57933225e-02 -0.84531108 -0.84372966 -0.84260900 -0.84165554 -0.84086174 
5.33669923e-02 -0.84530626 -0.84372419 -0.84260418 -0.84165137 -0.84085730 
4.32876128e-02 -0.84530144 -0.84371936 -0.84259924 -0.84164737 -0.84085286 
3.51119173e-02 -0.84529664 -0.84371564 -0.84259444 -0.84164344 -0.84084842 
2.84803587e-02 -0.84529363 -0.84371341 -0.84259203 -0.84164109 -0.84084580 
2.31012970e-02 -0.84529244 -0.84371265 -0.84259122 -0.84164033 -0.84084498 
1.87381742e-02 -0.84529126 -0.84371190 -0.84259042 -0.84163956 -0.84084416 
1.51991108e-02 -0.84529011 -0.84371117 -0.84258963 -0.84163881 -0.84084334 
1.23284674e-02 -0.84528900 -0.84371040 -0.84258887 -0.84163806 -0.84084249 
1.00000000e-02 -0.84528796 -0.84370963 -0.84258813 -0.84163734 -0.84084163 
8.11130831e-03 -0.84528256 -0.84370691 -0.84258596 -0.84163580 -0.84084096 
6.57933225e-03 -0.84527731 -0.84370428 -0.84258387 -0.84163429 -0.84084030 
5.33669923e-03 -0.84527229 -0.84370162 -0.84258187 -0.84163286 -0.84083966 
4.32876128e-03 -0.84526760 -0.84369873 -0.84258003 -0.84163152 -0.84083904 
3.51119173e-03 -0.84526342 -0.84369612 -0.84257841 -0.84163033 -0.84083846 
2.84803587e-03 -0.84521823 -0.84367992 -0.84256770 -0.84162424 -0.84083491 
2.31012970e-03 -0.84512182 -0.84365028 -0.84255203 -0.84161362 -0.84082502 
1.87381742e-03 -0.84503403 -0.84361672 -0.84253703 -0.84160049 -0.84081823 
1.51991108e-03 -0.84499514 -0.84358808 -0.84252019 -0.84158782 -0.84081269 
1.23284674e-03 -0.84495983 -0.84356205 -0.84250490 -0.84157649 -0.84080772 
1.00000000e-03 -0.84492973 -0.84354406 -0.84249270 -0.84156570 -0.84080360 
8.11130831e-04 -0.84469597 -0.84338587 -0.84237491 -0.84147010 -0.84075158 
6.57933225e-04 -0.84441576 -0.84322051 -0.84226379 -0.84138702 -0.84070223 
5.33669923e-04 -0.84423247 -0.84309110 -0.84216982 -0.84131402 -0.84065870 
4.32876128e-04 -0.84402001 -0.84294723 -0.84206824 -0.84125587 -0.84061073 
3.51119173e-04 -0.84388567 -0.84283146 -0.84198242 -0.84120678 -0.84057686 
2.84803587e-04 -0.84358513 -0.84256608 -0.84177212 -0.84103411 -0.84046638 
2.31012970e-04 -0.84314648 -0.84219771 -0.84145654 -0.84077094 -0.84026527 
1.87381742e-04 -0.84279080 -0.84189733 -0.84119416 -0.84055750 -0.84008568 
1.51991108e-04 -0.84249981 -0.84162448 -0.84097307 -0.84037609 -0.83993800 
1.23284674e-04 -0.84227066 -0.84141502 -0.84080263 -0.84022716 -0.83981395 
1.00000000e-04 -0.84212991 -0.84128327 -0.84067663 -0.84012223 -0.83969103 
8.11130831e-05 -0.84185178 -0.84094505 -0.84036438 -0.83983100 -0.83942316 
6.57933225e-05 -0.84165488 -0.84067942 -0.84012674 -0.83961937 -0.83922455 
5.33669923e-05 -0.84148232 -0.84051039 -0.83995650 -0.83947028 -0.83908796 
4.32876128e-05 -0.84140324 -0.84042609 -0.83985598 -0.83938141 -0.83901133 
3.51119173e-05 -0.84140519 -0.84043598 -0.83982153 -0.83934572 -0.83896849 
2.84803587e-05 -0.84138854 -0.84040467 -0.83978237 -0.83930432 -0.83890368 
2.31012970e-05 -0.84138157 -0.84037337 -0.83973206 -0.83926989 -0.83883527 
1.87381742e-05 -0.84141067 -0.84038717 -0.83973566 -0.83926655 -0.83882031 
1.51991108e-05 -0.84154542 -0.84046642 -0.83980143 -0.83929311 -0.83882944 
1.23284674e-05 -0.84171695 -0.84061406 -0.83990607 -0.83937150 -0.83888127 
1.00000000e-05 -0.84194199 -0.84080278 -0.84005870 -0.83949394 -0.83895500 
8.11130831e-06 -0.84218865 -0.84098157 -0.84020949 -0.83959845 -0.83904093 
6.57933225e-06 -0.84247475 -0.84119497 -0.84040486 -0.83973760 -0.83916842 
5.33669923e-06 -0.84266406 -0.84144731 -0.84061198 -0.83990517 -0.83932528 
4.32876128e-06 -0.84304386 -0.84174856 -0.84087468 -0.84011077 -0.83950977 
3.51119173e-06 -0.84331757 -0.84207236 -0.84114910 -0.84034587 -0.83972353 
2.84803587e-06 -0.84365790 -0.84235542 -0.84140106 -0.84054741 -0.83990720 
2.31012970e-06 -0.84402729 -0.84263490 -0.84162616 -0.84072804 -0.84008279 
1.87381742e-06 -0.84437470 -0.84291491 -0.84187207 -0.84093610 -0.84025420 
1.51991108e-06 -0.84477906 -0.84325659 -0.84212665 -0.84116518 -0.84043791 
1.23284674e-06 -0.84520028 -0.84355802 -0.84240056 -0.84137683 -0.84064635 
1.00000000e-06 -0.84568895 -0.84389877 -0.84270087 -0.84162604 -0.84085801 
8.11130831e-07 -0.84588524 -0.84407852 -0.84284309 -0.84173975 -0.84094557 
6.57933225e-07 -0.84608448 -0.84422420 -0.84298982 -0.84185352 -0.84105955 
5.33669923e-07 -0.84631983 -0.84441226 -0.84315270 -0.84197020 -0.84117679 
4.32876128e-07 -0.84653413 -0.84460993 -0.84329654 -0.84209286 -0.84128795 
3.51119173e-07 -0.84676033 -0.84480553 -0.84344552 -0.84222445 -0.84141488 
2.84803587e-07 -0.84695020 -0.84491401 -0.84355818 -0.84231826 -0.84149375 
2.31012970e-07 -0.84703345 -0.84497288 -0.84360676 -0.84235990 -0.84152308 
1.87381742e-07 -0.84710494 -0.84503663 -0.84365941 -0.84240232 -0.84156188 
1.51991108e-07 -0.84715762 -0.84510214 -0.84371632 -0.84245121 -0.84160861 
1.23284674e-07 -0.84723088 -0.84517304 -0.84377127 -0.84249893 -0.84165060 
1.00000000e-07 -0.84731206 -0.84524543 -0.84383117 -0.84255560 -0.84168579 
P (bar) | log_H2O: -2σ | log_H2O: -1σ | log_H2O: median | log_H2O: +1σ | log_H2O: +2σ 
1.00000000e+02 -2.11197337 -2.01260663 -1.91764728 -1.82720065 -1.72629446 
8.11130831e+01 -2.11197762 -2.01261283 -1.91765694 -1.82721764 -1.72631615 
6.57933225e+01 -2.11198188 -2.01261903 -1.91766660 -1.82723464 -1.72633784 
5.33669923e+01 -2.11198613 -2.01262524 -1.91767626 -1.82725164 -1.72635953 
4.32876128e+01 -2.11199039 -2.01263144 -1.91768592 -1.82726863 -1.72638121 
3.51119173e+01 -2.11199464 -2.01263765 -1.91769557 -1.82728563 -1.72640290 
2.84803587e+01 -2.11203531 -2.01268841 -1.91776178 -1.82738238 -1.72652313 
2.31012970e+01 -2.11211240 -2.01278372 -1.91788454 -1.82755888 -1.72674191 
1.87381742e+01 -2.11218948 -2.01287904 -1.91800730 -1.82773537 -1.72696068 
1.51991108e+01 -2.11226657 -2.01297436 -1.91813007 -1.82791187 -1.72717945 
1.23284674e+01 -2.11234365 -2.01306967 -1.91825283 -1.82808837 -1.72739823 
1.00000000e+01 -2.11242074 -2.01316499 -1.91837559 -1.82826487 -1.72761700 
8.11130831e+00 -2.11307416 -2.01394228 -1.91931563 -1.82950999 -1.72899992 
6.57933225e+00 -2.11372759 -2.01471957 -1.92025567 -1.83075512 -1.73038283 
5.33669923e+00 -2.11438101 -2.01549686 -1.92119705 -1.83197633 -1.73176575 
4.32876128e+00 -2.11503444 -2.01627416 -1.92219632 -1.83309256 -1.73314867 
3.51119173e+00 -2.11568786 -2.01705145 -1.92319560 -1.83427216 -1.73453158 
2.84803587e+00 -2.11721332 -2.01871154 -1.92497032 -1.83623526 -1.73649014 
2.31012970e+00 -2.11961080 -2.02124947 -1.92746813 -1.83909181 -1.73902434 
1.87381742e+00 -2.12200829 -2.02378741 -1.92996593 -1.84194836 -1.74155855 
1.51991108e+00 -2.12440578 -2.02627947 -1.93260830 -1.84453720 -1.74409275 
1.23284674e+00 -2.12680326 -2.02864810 -1.93526678 -1.84713892 -1.74678015 
1.00000000e+00 -2.12920075 -2.03094515 -1.93775730 -1.84984695 -1.74951192 
8.11130831e-01 -2.13110502 -2.03263711 -1.93932896 -1.85133411 -1.75087134 
6.57933225e-01 -2.13300929 -2.03434695 -1.94090062 -1.85282126 -1.75223076 
5.33669923e-01 -2.13491357 -2.03605679 -1.94247228 -1.85430842 -1.75359018 
4.32876128e-01 -2.13681784 -2.03776663 -1.94404394 -1.85579557 -1.75494960 
3.51119173e-01 -2.13872211 -2.03947647 -1.94561560 -1.85728273 -1.75630902 
2.84803587e-01 -2.14014236 -2.04081862 -1.94694390 -1.85843102 -1.75741559 
2.31012970e-01 -2.14107857 -2.04179913 -1.94802773 -1.85934321 -1.75826930 
1.87381742e-01 -2.14201478 -2.04293875 -1.94892316 -1.86037562 -1.75921927 
1.51991108e-01 -2.14295100 -2.04404466 -1.94981858 -1.86130304 -1.76023569 
1.23284674e-01 -2.14388721 -2.04505176 -1.95077677 -1.86207145 -1.76125210 
1.00000000e-01 -2.14482343 -2.04602473 -1.95181992 -1.86282194 -1.76226851 
8.11130831e-02 -2.14530746 -2.04645668 -1.95226665 -1.86309058 -1.76259193 
6.57933225e-02 -2.14579149 -2.04688863 -1.95271338 -1.86339391 -1.76291534 
5.33669923e-02 -2.14627553 -2.04732058 -1.95308604 -1.86371045 -1.76323875 
4.32876128e-02 -2.14675956 -2.04778447 -1.95344304 -1.86404572 -1.76356216 
3.51119173e-02 -2.14724360 -2.04826038 -1.95381008 -1.86431355 -1.76388558 
2.84803587e-02 -2.14753193 -2.04854242 -1.95407286 -1.86448052 -1.76409697 
2.31012970e-02 -2.14762458 -2.04863059 -1.95416032 -1.86454662 -1.76419635 
1.87381742e-02 -2.14771722 -2.04871877 -1.95424779 -1.86461272 -1.76429573 
1.51991108e-02 -2.14780986 -2.04880694 -1.95433526 -1.86467881 -1.76439510 
1.23284674e-02 -2.14790250 -2.04889511 -1.95442272 -1.86474491 -1.76449448 
1.00000000e-02 -2.14799514 -2.04898329 -1.95451019 -1.86481101 -1.76459386 
8.11130831e-03 -2.14809743 -2.04911195 -1.95473755 -1.86509207 -1.76514776 
6.57933225e-03 -2.14819972 -2.04924062 -1.95496491 -1.86537312 -1.76570167 
5.33669923e-03 -2.14830201 -2.04936928 -1.95515267 -1.86565925 -1.76625558 
4.32876128e-03 -2.14840429 -2.04949795 -1.95532632 -1.86597065 -1.76680949 
3.51119173e-03 -2.14850658 -2.04962661 -1.95549997 -1.86628206 -1.76736339 
2.84803587e-03 -2.14902368 -2.05040764 -1.95655143 -1.86753323 -1.77003486 
2.31012970e-03 -2.14995558 -2.05195424 -1.95800219 -1.86970379 -1.77482388 
1.87381742e-03 -2.15135876 -2.05339290 -1.95961246 -1.87243907 -1.77961290 
1.51991108e-03 -2.15282750 -2.05482877 -1.96121749 -1.87472975 -1.78374345 
1.23284674e-03 -2.15388770 -2.05623656 -1.96297334 -1.87711432 -1.78590387 
1.00000000e-03 -2.15473150 -2.05792937 -1.96444324 -1.87878859 -1.78806430 
8.11130831e-04 -2.16184242 -2.06973878 -1.97581952 -1.89142428 -1.80450451 
6.57933225e-04 -2.17064500 -2.08000176 -1.98788577 -1.90569909 -1.82286674 
5.33669923e-04 -2.17827578 -2.08899378 -1.99950592 -1.91897099 -1.83835552 
