Chemical species: H2 He H2O CO2 CO CH4 H2S
P (bar) | log_H2: -2σ | log_H2: -1σ | log_H2: median | log_H2: +1σ | log_H2: +2σ 
1.00000000e+02 -0.07088082 -0.07043778 -0.07002872 -0.06977374 -0.06955794 
8.11130831e+01 -0.07087459 -0.07042312 -0.07000853 -0.06975289 -0.06953512 
6.57933225e+01 -0.07086972 -0.07041380 -0.06999425 -0.06974063 -0.06952308 
5.33669923e+01 -0.07086872 -0.07040520 -0.06999228 -0.06972571 -0.06947751 
4.32876128e+01 -0.07086373 -0.07039583 -0.06998392 -0.06972356 -0.06945927 
3.51119173e+01 -0.07085442 -0.07038945 -0.06998918 -0.06973137 -0.06944873 
2.84803587e+01 -0.07085146 -0.07038228 -0.06997557 -0.06971410 -0.06942481 
2.31012970e+01 -0.07084628 -0.07037335 -0.06995551 -0.06967556 -0.06940024 
1.87381742e+01 -0.07084430 -0.07036433 -0.06994413 -0.06965666 -0.06937581 
1.51991108e+01 -0.07084162 -0.07035490 -0.06993711 -0.06963636 -0.06935756 
1.23284674e+01 -0.07083111 -0.07035029 -0.06993757 -0.06963572 -0.06935059 
1.00000000e+01 -0.07082065 -0.07035474 -0.06994636 -0.06964069 -0.06934851 
8.11130831e+00 -0.07080860 -0.07032930 -0.06991521 -0.06960798 -0.06933156 
6.57933225e+00 -0.07080320 -0.07031475 -0.06988863 -0.06957757 -0.06931592 
5.33669923e+00 -0.07079808 -0.07030884 -0.06987416 -0.06955954 -0.06930672 
4.32876128e+00 -0.07078699 -0.07030329 -0.06986546 -0.06955036 -0.06929955 
3.51119173e+00 -0.07077412 -0.07029643 -0.06986796 -0.06954979 -0.06929765 
2.84803587e+00 -0.07075943 -0.07028353 -0.06985623 -0.06954518 -0.06929445 
2.31012970e+00 -0.07074144 -0.07026231 -0.06983053 -0.06952505 -0.06928066 
1.87381742e+00 -0.07072421 -0.07024593 -0.06980953 -0.06950632 -0.06927907 
1.51991108e+00 -0.07070962 -0.07023330 -0.06979499 -0.06949580 -0.06927173 
1.23284674e+00 -0.07070537 -0.07022462 -0.06979174 -0.06949515 -0.06927123 
1.00000000e+00 -0.07070414 -0.07023222 -0.06979936 -0.06950094 -0.06927095 
8.11130831e-01 -0.07070081 -0.07018450 -0.06976921 -0.06948430 -0.06927051 
6.57933225e-01 -0.07068812 -0.07015239 -0.06974610 -0.06947233 -0.06927016 
5.33669923e-01 -0.07068013 -0.07012832 -0.06973893 -0.06946081 -0.06926816 
4.32876128e-01 -0.07067313 -0.07011161 -0.06973185 -0.06945791 -0.06926704 
3.51119173e-01 -0.07066836 -0.07010920 -0.06973271 -0.06946257 -0.06926679 
2.84803587e-01 -0.07064706 -0.07009343 -0.06972718 -0.06946263 -0.06926660 
2.31012970e-01 -0.07058810 -0.07006352 -0.06970552 -0.06945439 -0.06926604 
1.87381742e-01 -0.07053840 -0.07004025 -0.06969577 -0.06945039 -0.06926569 
1.51991108e-01 -0.07050774 -0.07002562 -0.06969183 -0.06944884 -0.06926552 
1.23284674e-01 -0.07051995 -0.07002386 -0.06969602 -0.06945012 -0.06926554 
1.00000000e-01 -0.07049101 -0.07002029 -0.06970432 -0.06945348 -0.06926563 
8.11130831e-02 -0.07041532 -0.06999413 -0.06969961 -0.06945016 -0.06926551 
6.57933225e-02 -0.07039963 -0.06997978 -0.06969572 -0.06945016 -0.06926508 
5.33669923e-02 -0.07038598 -0.06996997 -0.06969841 -0.06945045 -0.06926494 
4.32876128e-02 -0.07036920 -0.06997142 -0.06970408 -0.06945500 -0.06926480 
3.51119173e-02 -0.07034877 -0.06998065 -0.06971285 -0.06945788 -0.06926468 
2.84803587e-02 -0.07034971 -0.06998906 -0.06971706 -0.06945899 -0.06926477 
2.31012970e-02 -0.07036832 -0.06999275 -0.06972147 -0.06945919 -0.06926477 
1.87381742e-02 -0.07036720 -0.07000129 -0.06972876 -0.06946145 -0.06926481 
1.51991108e-02 -0.07037424 -0.07001009 -0.06973327 -0.06946250 -0.06926489 
1.23284674e-02 -0.07038781 -0.07002190 -0.06973734 -0.06946143 -0.06926502 
1.00000000e-02 -0.07039448 -0.07003962 -0.06974248 -0.06946331 -0.06926519 
8.11130831e-03 -0.07042417 -0.07005967 -0.06974710 -0.06946469 -0.06926515 
6.57933225e-03 -0.07044830 -0.07007006 -0.06974956 -0.06946485 -0.06926501 
5.33669923e-03 -0.07047573 -0.07008636 -0.06975387 -0.06946499 -0.06926439 
4.32876128e-03 -0.07050709 -0.07009420 -0.06975953 -0.06946633 -0.06926407 
3.51119173e-03 -0.07053841 -0.07010759 -0.06976408 -0.06946827 -0.06926403 
2.84803587e-03 -0.07055461 -0.07011287 -0.06976742 -0.06946918 -0.06926406 
2.31012970e-03 -0.07056940 -0.07011969 -0.06976767 -0.06946939 -0.06926399 
1.87381742e-03 -0.07058777 -0.07013302 -0.06976868 -0.06947076 -0.06926399 
1.51991108e-03 -0.07059678 -0.07013758 -0.06976977 -0.06947113 -0.06926406 
1.23284674e-03 -0.07061129 -0.07015220 -0.06977007 -0.06947040 -0.06926420 
1.00000000e-03 -0.07061805 -0.07015778 -0.06977238 -0.06947079 -0.06926442 
8.11130831e-04 -0.07061981 -0.07016269 -0.06977115 -0.06946995 -0.06926434 
6.57933225e-04 -0.07063389 -0.07016635 -0.06977132 -0.06946852 -0.06926425 
5.33669923e-04 -0.07065283 -0.07016707 -0.06976906 -0.06946842 -0.06926367 
4.32876128e-04 -0.07067208 -0.07016850 -0.06976892 -0.06946872 -0.06926234 
3.51119173e-04 -0.07067485 -0.07016983 -0.06976972 -0.06946926 -0.06926167 
2.84803587e-04 -0.07067717 -0.07017076 -0.06977038 -0.06946972 -0.06926128 
2.31012970e-04 -0.07068296 -0.07017123 -0.06977075 -0.06946998 -0.06926086 
1.87381742e-04 -0.07068165 -0.07017219 -0.06977119 -0.06947034 -0.06926069 
1.51991108e-04 -0.07069037 -0.07017088 -0.06977168 -0.06946611 -0.06926075 
1.23284674e-04 -0.07069587 -0.07017067 -0.06977121 -0.06946435 -0.06925952 
1.00000000e-04 -0.07069751 -0.07017133 -0.06977206 -0.06946449 -0.06925435 
8.11130831e-05 -0.07069883 -0.07017202 -0.06976967 -0.06946249 -0.06925052 
6.57933225e-05 -0.07070017 -0.07017282 -0.06976422 -0.06946103 -0.06924360 
5.33669923e-05 -0.07070152 -0.07017359 -0.06976011 -0.06945995 -0.06923657 
4.32876128e-05 -0.07070290 -0.07017423 -0.06975637 -0.06945758 -0.06922317 
3.51119173e-05 -0.07070428 -0.07017662 -0.06975516 -0.06945269 -0.06921869 
2.84803587e-05 -0.07070555 -0.07017523 -0.06974914 -0.06944898 -0.06921578 
2.31012970e-05 -0.07070666 -0.07017579 -0.06974773 -0.06944670 -0.06921339 
1.87381742e-05 -0.07070773 -0.07017631 -0.06974801 -0.06944366 -0.06920799 
1.51991108e-05 -0.07070876 -0.07017684 -0.06974792 -0.06944032 -0.06919000 
1.23284674e-05 -0.07070972 -0.07017739 -0.06974939 -0.06943664 -0.06917636 
1.00000000e-05 -0.07071061 -0.07017579 -0.06974995 -0.06943344 -0.06916722 
8.11130831e-06 -0.07071092 -0.07017522 -0.06975050 -0.06942690 -0.06916694 
6.57933225e-06 -0.07071115 -0.07017557 -0.06975167 -0.06942675 -0.06916136 
5.33669923e-06 -0.07071130 -0.07017907 -0.06975694 -0.06942983 -0.06916252 
4.32876128e-06 -0.07071141 -0.07017963 -0.06975783 -0.06943383 -0.06916848 
3.51119173e-06 -0.07071150 -0.07017968 -0.06975924 -0.06943774 -0.06917598 
2.84803587e-06 -0.07071123 -0.07018117 -0.06976008 -0.06943918 -0.06917934 
2.31012970e-06 -0.07071062 -0.07018052 -0.06976197 -0.06944026 -0.06918245 
1.87381742e-06 -0.07071001 -0.07017988 -0.06976484 -0.06944218 -0.06918690 
1.51991108e-06 -0.07070942 -0.07017922 -0.06976612 -0.06944501 -0.06919459 
1.23284674e-06 -0.07070882 -0.07017832 -0.06976699 -0.06945078 -0.06919682 
1.00000000e-06 -0.07070824 -0.07017847 -0.06976818 -0.06945181 -0.06920043 
8.11130831e-07 -0.07070670 -0.07017812 -0.06976897 -0.06945229 -0.06920496 
6.57933225e-07 -0.07070518 -0.07017778 -0.06976910 -0.06945593 -0.06920953 
5.33669923e-07 -0.07070371 -0.07017720 -0.06977110 -0.06945890 -0.06921440 
4.32876128e-07 -0.07070226 -0.07017627 -0.06977078 -0.06946198 -0.06921876 
3.51119173e-07 -0.07070085 -0.07017634 -0.06977269 -0.06946520 -0.06922343 
2.84803587e-07 -0.07069927 -0.07017673 -0.06977395 -0.06946744 -0.06922761 
2.31012970e-07 -0.07069941 -0.07017706 -0.06977454 -0.06946777 -0.06923128 
1.87381742e-07 -0.07069954 -0.07017717 -0.06977513 -0.06946776 -0.06923497 
1.51991108e-07 -0.07069968 -0.07017709 -0.06977649 -0.06946787 -0.06923868 
1.23284674e-07 -0.07069982 -0.07017701 -0.06977773 -0.06947008 -0.06924201 
1.00000000e-07 -0.07069997 -0.07017988 -0.06977828 -0.06947141 -0.06924226 
P (bar) | log_He: -2σ | log_He: -1σ | log_He: median | log_He: +1σ | log_He: +2σ 
1.00000000e+02 -0.84043190 -0.83998886 -0.83957979 -0.83932482 -0.83910902 
8.11130831e+01 -0.84042567 -0.83997420 -0.83955961 -0.83930397 -0.83908620 
6.57933225e+01 -0.84042080 -0.83996488 -0.83954533 -0.83929171 -0.83907416 
5.33669923e+01 -0.84041979 -0.83995628 -0.83954336 -0.83927679 -0.83902859 
4.32876128e+01 -0.84041481 -0.83994691 -0.83953500 -0.83927464 -0.83901035 
3.51119173e+01 -0.84040550 -0.83994053 -0.83954026 -0.83928245 -0.83899981 
2.84803587e+01 -0.84040254 -0.83993336 -0.83952665 -0.83926518 -0.83897589 
2.31012970e+01 -0.84039735 -0.83992443 -0.83950659 -0.83922664 -0.83895132 
1.87381742e+01 -0.84039538 -0.83991541 -0.83949521 -0.83920773 -0.83892689 
1.51991108e+01 -0.84039270 -0.83990598 -0.83948819 -0.83918744 -0.83890863 
1.23284674e+01 -0.84038219 -0.83990136 -0.83948865 -0.83918680 -0.83890166 
1.00000000e+01 -0.84037173 -0.83990582 -0.83949744 -0.83919177 -0.83889958 
8.11130831e+00 -0.84035968 -0.83988038 -0.83946629 -0.83915906 -0.83888264 
6.57933225e+00 -0.84035428 -0.83986583 -0.83943970 -0.83912865 -0.83886700 
5.33669923e+00 -0.84034916 -0.83985991 -0.83942524 -0.83911062 -0.83885780 
4.32876128e+00 -0.84033807 -0.83985437 -0.83941654 -0.83910144 -0.83885063 
3.51119173e+00 -0.84032520 -0.83984751 -0.83941904 -0.83910087 -0.83884873 
2.84803587e+00 -0.84031051 -0.83983461 -0.83940731 -0.83909626 -0.83884553 
2.31012970e+00 -0.84029252 -0.83981339 -0.83938161 -0.83907613 -0.83883174 
1.87381742e+00 -0.84027529 -0.83979701 -0.83936061 -0.83905740 -0.83883015 
1.51991108e+00 -0.84026070 -0.83978438 -0.83934607 -0.83904687 -0.83882281 
1.23284674e+00 -0.84025645 -0.83977569 -0.83934282 -0.83904623 -0.83882231 
1.00000000e+00 -0.84025522 -0.83978330 -0.83935043 -0.83905202 -0.83882203 
8.11130831e-01 -0.84025189 -0.83973558 -0.83932029 -0.83903537 -0.83882158 
6.57933225e-01 -0.84023920 -0.83970347 -0.83929718 -0.83902340 -0.83882123 
5.33669923e-01 -0.84023121 -0.83967940 -0.83929001 -0.83901189 -0.83881924 
4.32876128e-01 -0.84022421 -0.83966268 -0.83928292 -0.83900899 -0.83881812 
3.51119173e-01 -0.84021944 -0.83966027 -0.83928378 -0.83901365 -0.83881787 
2.84803587e-01 -0.84019814 -0.83964451 -0.83927826 -0.83901371 -0.83881768 
2.31012970e-01 -0.84013917 -0.83961460 -0.83925660 -0.83900547 -0.83881711 
1.87381742e-01 -0.84008948 -0.83959133 -0.83924685 -0.83900147 -0.83881677 
1.51991108e-01 -0.84005882 -0.83957670 -0.83924291 -0.83899992 -0.83881660 
1.23284674e-01 -0.84007102 -0.83957494 -0.83924710 -0.83900120 -0.83881662 
1.00000000e-01 -0.84004209 -0.83957137 -0.83925540 -0.83900456 -0.83881670 
8.11130831e-02 -0.83996640 -0.83954521 -0.83925069 -0.83900124 -0.83881658 
6.57933225e-02 -0.83995071 -0.83953086 -0.83924680 -0.83900124 -0.83881616 
5.33669923e-02 -0.83993706 -0.83952105 -0.83924949 -0.83900153 -0.83881602 
4.32876128e-02 -0.83992027 -0.83952249 -0.83925516 -0.83900608 -0.83881588 
3.51119173e-02 -0.83989984 -0.83953173 -0.83926393 -0.83900896 -0.83881575 
2.84803587e-02 -0.83990079 -0.83954014 -0.83926814 -0.83901007 -0.83881585 
2.31012970e-02 -0.83991940 -0.83954383 -0.83927255 -0.83901027 -0.83881585 
1.87381742e-02 -0.83991828 -0.83955237 -0.83927984 -0.83901253 -0.83881589 
1.51991108e-02 -0.83992532 -0.83956117 -0.83928435 -0.83901358 -0.83881597 
1.23284674e-02 -0.83993889 -0.83957298 -0.83928842 -0.83901251 -0.83881610 
1.00000000e-02 -0.83994556 -0.83959070 -0.83929356 -0.83901439 -0.83881627 
8.11130831e-03 -0.83997525 -0.83961075 -0.83929817 -0.83901576 -0.83881623 
6.57933225e-03 -0.83999938 -0.83962114 -0.83930063 -0.83901593 -0.83881609 
5.33669923e-03 -0.84002680 -0.83963744 -0.83930495 -0.83901607 -0.83881547 
4.32876128e-03 -0.84005817 -0.83964528 -0.83931061 -0.83901741 -0.83881515 
3.51119173e-03 -0.84008949 -0.83965867 -0.83931516 -0.83901935 -0.83881511 
2.84803587e-03 -0.84010569 -0.83966395 -0.83931850 -0.83902026 -0.83881514 
2.31012970e-03 -0.84012048 -0.83967077 -0.83931874 -0.83902047 -0.83881507 
1.87381742e-03 -0.84013885 -0.83968410 -0.83931976 -0.83902184 -0.83881507 
1.51991108e-03 -0.84014786 -0.83968866 -0.83932085 -0.83902220 -0.83881514 
1.23284674e-03 -0.84016237 -0.83970327 -0.83932115 -0.83902148 -0.83881528 
1.00000000e-03 -0.84016913 -0.83970886 -0.83932346 -0.83902187 -0.83881549 
8.11130831e-04 -0.84017089 -0.83971377 -0.83932223 -0.83902103 -0.83881542 
6.57933225e-04 -0.84018497 -0.83971743 -0.83932240 -0.83901960 -0.83881533 
5.33669923e-04 -0.84020391 -0.83971815 -0.83932014 -0.83901950 -0.83881475 
4.32876128e-04 -0.84022316 -0.83971957 -0.83931999 -0.83901980 -0.83881342 
3.51119173e-04 -0.84022593 -0.83972091 -0.83932080 -0.83902034 -0.83881275 
2.84803587e-04 -0.84022825 -0.83972183 -0.83932146 -0.83902080 -0.83881236 
2.31012970e-04 -0.84023404 -0.83972231 -0.83932183 -0.83902106 -0.83881194 
1.87381742e-04 -0.84023273 -0.83972327 -0.83932227 -0.83902142 -0.83881176 
1.51991108e-04 -0.84024145 -0.83972195 -0.83932276 -0.83901719 -0.83881183 
1.23284674e-04 -0.84024695 -0.83972175 -0.83932228 -0.83901542 -0.83881060 
1.00000000e-04 -0.84024858 -0.83972241 -0.83932313 -0.83901556 -0.83880543 
8.11130831e-05 -0.84024991 -0.83972310 -0.83932074 -0.83901357 -0.83880159 
6.57933225e-05 -0.84025125 -0.83972389 -0.83931530 -0.83901211 -0.83879467 
5.33669923e-05 -0.84025260 -0.83972467 -0.83931119 -0.83901103 -0.83878765 
4.32876128e-05 -0.84025398 -0.83972531 -0.83930745 -0.83900865 -0.83877425 
3.51119173e-05 -0.84025536 -0.83972769 -0.83930624 -0.83900377 -0.83876976 
2.84803587e-05 -0.84025662 -0.83972631 -0.83930021 -0.83900005 -0.83876686 
2.31012970e-05 -0.84025774 -0.83972686 -0.83929881 -0.83899778 -0.83876447 
1.87381742e-05 -0.84025881 -0.83972739 -0.83929909 -0.83899474 -0.83875906 
1.51991108e-05 -0.84025984 -0.83972792 -0.83929900 -0.83899140 -0.83874108 
1.23284674e-05 -0.84026080 -0.83972847 -0.83930047 -0.83898772 -0.83872744 
1.00000000e-05 -0.84026169 -0.83972687 -0.83930103 -0.83898452 -0.83871830 
8.11130831e-06 -0.84026200 -0.83972630 -0.83930158 -0.83897797 -0.83871802 
6.57933225e-06 -0.84026223 -0.83972665 -0.83930275 -0.83897783 -0.83871244 
5.33669923e-06 -0.84026238 -0.83973014 -0.83930802 -0.83898091 -0.83871360 
4.32876128e-06 -0.84026249 -0.83973071 -0.83930891 -0.83898491 -0.83871956 
3.51119173e-06 -0.84026258 -0.83973076 -0.83931032 -0.83898882 -0.83872706 
2.84803587e-06 -0.84026231 -0.83973225 -0.83931116 -0.83899026 -0.83873042 
2.31012970e-06 -0.84026170 -0.83973160 -0.83931305 -0.83899134 -0.83873353 
1.87381742e-06 -0.84026109 -0.83973096 -0.83931592 -0.83899326 -0.83873798 
1.51991108e-06 -0.84026049 -0.83973030 -0.83931720 -0.83899609 -0.83874567 
1.23284674e-06 -0.84025990 -0.83972940 -0.83931807 -0.83900186 -0.83874790 
1.00000000e-06 -0.84025932 -0.83972955 -0.83931926 -0.83900289 -0.83875151 
8.11130831e-07 -0.84025777 -0.83972920 -0.83932005 -0.83900337 -0.83875604 
6.57933225e-07 -0.84025626 -0.83972886 -0.83932017 -0.83900700 -0.83876061 
5.33669923e-07 -0.84025479 -0.83972828 -0.83932218 -0.83900998 -0.83876547 
4.32876128e-07 -0.84025334 -0.83972735 -0.83932186 -0.83901306 -0.83876984 
3.51119173e-07 -0.84025192 -0.83972742 -0.83932377 -0.83901628 -0.83877451 
2.84803587e-07 -0.84025035 -0.83972781 -0.83932503 -0.83901852 -0.83877868 
2.31012970e-07 -0.84025049 -0.83972814 -0.83932562 -0.83901885 -0.83878235 
1.87381742e-07 -0.84025062 -0.83972825 -0.83932621 -0.83901884 -0.83878605 
1.51991108e-07 -0.84025076 -0.83972817 -0.83932757 -0.83901895 -0.83878976 
1.23284674e-07 -0.84025090 -0.83972809 -0.83932881 -0.83902116 -0.83879309 
1.00000000e-07 -0.84025105 -0.83973096 -0.83932936 -0.83902249 -0.83879334 
P (bar) | log_H2O: -2σ | log_H2O: -1σ | log_H2O: median | log_H2O: +1σ | log_H2O: +2σ 
1.00000000e+02 -2.71040075 -2.63740057 -2.56045967 -2.47495011 -2.37515417 
8.11130831e+01 -2.72173530 -2.63811336 -2.56219768 -2.47655770 -2.37598847 
6.57933225e+01 -2.72755050 -2.63948452 -2.56512178 -2.47873310 -2.37606419 
5.33669923e+01 -2.74808430 -2.64178993 -2.56606633 -2.48079932 -2.38127768 
4.32876128e+01 -2.76499702 -2.64249835 -2.56728665 -2.48108748 -2.38332179 
3.51119173e+01 -2.78374520 -2.64728149 -2.56871441 -2.48141469 -2.38350479 
2.84803587e+01 -2.80366426 -2.65139946 -2.57035089 -2.48305346 -2.38636976 
2.31012970e+01 -2.81319612 -2.65675988 -2.57396586 -2.48418586 -2.39018102 
1.87381742e+01 -2.81809261 -2.66392498 -2.57815907 -2.48678004 -2.39012393 
1.51991108e+01 -2.83998708 -2.67399519 -2.58070423 -2.48918574 -2.39007187 
1.23284674e+01 -2.85763364 -2.67885299 -2.58417390 -2.49081292 -2.39003475 
1.00000000e+01 -2.87353455 -2.68670842 -2.58758697 -2.49274115 -2.39344145 
8.11130831e+00 -2.88198148 -2.69541403 -2.59101011 -2.49468155 -2.39562069 
6.57933225e+00 -2.89000996 -2.70487812 -2.59395898 -2.49765994 -2.39877441 
5.33669923e+00 -2.89708457 -2.71321994 -2.59703218 -2.50176045 -2.40016082 
4.32876128e+00 -2.90606448 -2.72175338 -2.60135953 -2.50452246 -2.40273872 
3.51119173e+00 -2.91952768 -2.73370347 -2.60351245 -2.50706925 -2.40613668 
2.84803587e+00 -2.92737716 -2.74142406 -2.60937880 -2.51106179 -2.40808727 
2.31012970e+00 -2.92886555 -2.74780418 -2.61429100 -2.51349759 -2.40941369 
1.87381742e+00 -2.93114634 -2.75160216 -2.61996647 -2.51643752 -2.41064148 
1.51991108e+00 -2.93322262 -2.75874942 -2.62505377 -2.51865153 -2.41271890 
1.23284674e+00 -2.93660876 -2.76596875 -2.62942037 -2.52181283 -2.41365886 
1.00000000e+00 -2.94623464 -2.77845402 -2.63352692 -2.52509383 -2.41381516 
8.11130831e-01 -2.94912752 -2.78339520 -2.63693239 -2.52840163 -2.41391982 
6.57933225e-01 -2.95320373 -2.78745227 -2.64278893 -2.53236030 -2.41516882 
5.33669923e-01 -2.95575310 -2.79183478 -2.65044727 -2.53498204 -2.41778284 
4.32876128e-01 -2.95907373 -2.79742903 -2.65679480 -2.53811693 -2.41925056 
3.51119173e-01 -2.96028718 -2.80384629 -2.66366942 -2.54351639 -2.41927168 
2.84803587e-01 -2.96051722 -2.80636793 -2.67138486 -2.54646465 -2.41970666 
2.31012970e-01 -2.96054694 -2.80804668 -2.67622346 -2.55021272 -2.42719838 
1.87381742e-01 -2.96060019 -2.81067809 -2.68009593 -2.55410058 -2.43034744 
1.51991108e-01 -2.96067697 -2.81469272 -2.68414435 -2.56035005 -2.43482825 
1.23284674e-01 -2.96093573 -2.81787826 -2.68737119 -2.56969550 -2.44123646 
1.00000000e-01 -2.96278778 -2.82236548 -2.69216428 -2.57119120 -2.43931933 
8.11130831e-02 -2.96274282 -2.82417521 -2.69245106 -2.57624773 -2.44437080 
6.57933225e-02 -2.96272663 -2.82460472 -2.69539969 -2.57672239 -2.44557239 
5.33669923e-02 -2.96273920 -2.82450493 -2.69573834 -2.57801925 -2.44818594 
4.32876128e-02 -2.96278053 -2.82474253 -2.69671926 -2.57820886 -2.45236592 
3.51119173e-02 -2.96280025 -2.82637090 -2.69979717 -2.57953834 -2.45920278 
2.84803587e-02 -2.96274691 -2.82638904 -2.69721907 -2.57938211 -2.46119565 
2.31012970e-02 -2.96252443 -2.82476862 -2.69682570 -2.57941577 -2.46445602 
1.87381742e-02 -2.96232021 -2.82462234 -2.69430399 -2.57647681 -2.46478192 
1.51991108e-02 -2.96213426 -2.82440018 -2.69109821 -2.57473776 -2.46155076 
1.23284674e-02 -2.96196657 -2.82405819 -2.68949045 -2.57151201 -2.45669191 
1.00000000e-02 -2.96181716 -2.82267569 -2.68633180 -2.56864882 -2.45460186 
8.11130831e-03 -2.96176014 -2.82205760 -2.68496276 -2.56638337 -2.45412534 
6.57933225e-03 -2.96189228 -2.82201372 -2.68295756 -2.56205495 -2.45283254 
5.33669923e-03 -2.96203508 -2.82052247 -2.68136687 -2.55961565 -2.45283067 
4.32876128e-03 -2.96218856 -2.82018282 -2.67958818 -2.55572327 -2.44823115 
3.51119173e-03 -2.96237120 -2.82016294 -2.67766871 -2.55278824 -2.44347809 
2.84803587e-03 -2.96256529 -2.82001178 -2.67667000 -2.55074808 -2.43774551 
2.31012970e-03 -2.96271749 -2.81975010 -2.67488440 -2.54872367 -2.42758330 
1.87381742e-03 -2.96284430 -2.81947434 -2.67434167 -2.54633092 -2.42142147 
1.51991108e-03 -2.96294574 -2.81951036 -2.67403556 -2.54609644 -2.42258469 
1.23284674e-03 -2.96302179 -2.81938825 -2.67380335 -2.54396509 -2.41802402 
1.00000000e-03 -2.96307247 -2.81919833 -2.67308626 -2.54359360 -2.41192932 
8.11130831e-04 -2.96326140 -2.81910567 -2.67301575 -2.54349126 -2.40764067 
6.57933225e-04 -2.96453753 -2.81924408 -2.67299661 -2.54298435 -2.40326417 
5.33669923e-04 -2.96570207 -2.81914262 -2.67277235 -2.54162208 -2.39897289 
