Chemical species: H2 He H2O CO2 SO2 CO H2S NH3 CH4
P (bar) | log_H2: -2σ | log_H2: -1σ | log_H2: median | log_H2: +1σ | log_H2: +2σ 
1.00000000e+02 -0.06956069 -0.06942294 -0.06930000 -0.06917317 -0.06909488 
8.11130831e+01 -0.06955832 -0.06942100 -0.06929841 -0.06917169 -0.06909363 
6.57933225e+01 -0.06955597 -0.06941905 -0.06929683 -0.06917022 -0.06909238 
5.33669923e+01 -0.06955364 -0.06941740 -0.06929526 -0.06916877 -0.06909115 
4.32876128e+01 -0.06955132 -0.06941577 -0.06929369 -0.06916732 -0.06908989 
3.51119173e+01 -0.06954944 -0.06941398 -0.06929214 -0.06916588 -0.06908865 
2.84803587e+01 -0.06954381 -0.06940850 -0.06928727 -0.06916154 -0.06908462 
2.31012970e+01 -0.06953331 -0.06940007 -0.06927910 -0.06915458 -0.06907794 
1.87381742e+01 -0.06952305 -0.06939144 -0.06927117 -0.06914747 -0.06907157 
1.51991108e+01 -0.06951392 -0.06938260 -0.06926346 -0.06914038 -0.06906549 
1.23284674e+01 -0.06950505 -0.06937448 -0.06925598 -0.06913355 -0.06905947 
1.00000000e+01 -0.06949684 -0.06936626 -0.06924870 -0.06912698 -0.06905362 
8.11130831e+00 -0.06947684 -0.06934796 -0.06923250 -0.06911271 -0.06904091 
6.57933225e+00 -0.06945828 -0.06933091 -0.06921752 -0.06909951 -0.06902855 
5.33669923e+00 -0.06944102 -0.06931521 -0.06920350 -0.06908731 -0.06901709 
4.32876128e+00 -0.06942494 -0.06930064 -0.06919051 -0.06907577 -0.06900644 
3.51119173e+00 -0.06940993 -0.06928707 -0.06917839 -0.06906504 -0.06899667 
2.84803587e+00 -0.06939423 -0.06927312 -0.06916599 -0.06905420 -0.06898682 
2.31012970e+00 -0.06937861 -0.06925949 -0.06915418 -0.06904361 -0.06897678 
1.87381742e+00 -0.06936469 -0.06924758 -0.06914362 -0.06903449 -0.06896875 
1.51991108e+00 -0.06935233 -0.06923680 -0.06913351 -0.06902628 -0.06896118 
1.23284674e+00 -0.06934125 -0.06922702 -0.06912451 -0.06901892 -0.06895440 
1.00000000e+00 -0.06933148 -0.06921848 -0.06911740 -0.06901205 -0.06894780 
8.11130831e-01 -0.06932544 -0.06921284 -0.06911233 -0.06900757 -0.06894357 
6.57933225e-01 -0.06932064 -0.06920801 -0.06910831 -0.06900388 -0.06893987 
5.33669923e-01 -0.06931666 -0.06920426 -0.06910475 -0.06900075 -0.06893676 
4.32876128e-01 -0.06931326 -0.06920094 -0.06910172 -0.06899815 -0.06893410 
3.51119173e-01 -0.06931034 -0.06919799 -0.06909925 -0.06899590 -0.06893179 
2.84803587e-01 -0.06930802 -0.06919568 -0.06909716 -0.06899416 -0.06893003 
2.31012970e-01 -0.06930625 -0.06919398 -0.06909563 -0.06899286 -0.06892876 
1.87381742e-01 -0.06930476 -0.06919257 -0.06909436 -0.06899179 -0.06892772 
1.51991108e-01 -0.06930351 -0.06919139 -0.06909331 -0.06899089 -0.06892685 
1.23284674e-01 -0.06930246 -0.06919042 -0.06909243 -0.06899014 -0.06892614 
1.00000000e-01 -0.06930158 -0.06918961 -0.06909171 -0.06898953 -0.06892555 
8.11130831e-02 -0.06929835 -0.06918727 -0.06908945 -0.06898738 -0.06892388 
6.57933225e-02 -0.06929526 -0.06918495 -0.06908728 -0.06898534 -0.06892232 
5.33669923e-02 -0.06929232 -0.06918254 -0.06908504 -0.06898345 -0.06892086 
4.32876128e-02 -0.06929004 -0.06918062 -0.06908309 -0.06898177 -0.06891950 
3.51119173e-02 -0.06928791 -0.06917890 -0.06908142 -0.06898022 -0.06891825 
2.84803587e-02 -0.06928091 -0.06917168 -0.06907432 -0.06897408 -0.06891301 
2.31012970e-02 -0.06926954 -0.06915911 -0.06906265 -0.06896247 -0.06890241 
1.87381742e-02 -0.06925859 -0.06914811 -0.06905069 -0.06895179 -0.06889271 
1.51991108e-02 -0.06924816 -0.06913720 -0.06904008 -0.06894188 -0.06888399 
1.23284674e-02 -0.06923717 -0.06912628 -0.06903091 -0.06893284 -0.06887432 
1.00000000e-02 -0.06922563 -0.06911711 -0.06902238 -0.06892462 -0.06886675 
8.11130831e-03 -0.06919935 -0.06909326 -0.06900023 -0.06890141 -0.06884281 
6.57933225e-03 -0.06917838 -0.06907260 -0.06897850 -0.06888206 -0.06882273 
5.33669923e-03 -0.06916011 -0.06905408 -0.06896125 -0.06886490 -0.06880705 
4.32876128e-03 -0.06914497 -0.06903902 -0.06894662 -0.06884980 -0.06879305 
3.51119173e-03 -0.06913358 -0.06902787 -0.06893581 -0.06883952 -0.06878264 
2.84803587e-03 -0.06911655 -0.06901386 -0.06892364 -0.06882911 -0.06877263 
2.31012970e-03 -0.06909535 -0.06899818 -0.06891043 -0.06881909 -0.06876376 
1.87381742e-03 -0.06908065 -0.06898785 -0.06890233 -0.06881452 -0.06875903 
1.51991108e-03 -0.06907331 -0.06898504 -0.06890087 -0.06881454 -0.06875835 
1.23284674e-03 -0.06907236 -0.06898684 -0.06890422 -0.06881930 -0.06876255 
1.00000000e-03 -0.06908129 -0.06899647 -0.06891294 -0.06882891 -0.06877165 
8.11130831e-04 -0.06906879 -0.06898750 -0.06890796 -0.06882586 -0.06877211 
6.57933225e-04 -0.06906158 -0.06898321 -0.06890572 -0.06882658 -0.06877420 
5.33669923e-04 -0.06905902 -0.06898248 -0.06890684 -0.06882987 -0.06877648 
4.32876128e-04 -0.06906226 -0.06898483 -0.06891050 -0.06883523 -0.06878165 
3.51119173e-04 -0.06906842 -0.06898943 -0.06891686 -0.06884209 -0.06878848 
2.84803587e-04 -0.06907334 -0.06899338 -0.06892182 -0.06884741 -0.06879461 
2.31012970e-04 -0.06907494 -0.06899487 -0.06892461 -0.06885039 -0.06879804 
1.87381742e-04 -0.06907634 -0.06899734 -0.06892780 -0.06885420 -0.06880140 
1.51991108e-04 -0.06907846 -0.06900041 -0.06893132 -0.06885793 -0.06880508 
1.23284674e-04 -0.06908109 -0.06900380 -0.06893504 -0.06886191 -0.06880923 
1.00000000e-04 -0.06908530 -0.06900733 -0.06893908 -0.06886619 -0.06881351 
8.11130831e-05 -0.06909051 -0.06901201 -0.06894385 -0.06887093 -0.06881794 
6.57933225e-05 -0.06909519 -0.06901660 -0.06894893 -0.06887567 -0.06882280 
5.33669923e-05 -0.06909983 -0.06902146 -0.06895408 -0.06888050 -0.06882760 
4.32876128e-05 -0.06910456 -0.06902645 -0.06895918 -0.06888545 -0.06883244 
3.51119173e-05 -0.06910935 -0.06903146 -0.06896415 -0.06889048 -0.06883732 
2.84803587e-05 -0.06911506 -0.06903715 -0.06896971 -0.06889575 -0.06884230 
2.31012970e-05 -0.06912172 -0.06904355 -0.06897588 -0.06890142 -0.06884737 
1.87381742e-05 -0.06912845 -0.06905002 -0.06898213 -0.06890711 -0.06885249 
1.51991108e-05 -0.06913526 -0.06905663 -0.06898838 -0.06891287 -0.06885767 
1.23284674e-05 -0.06914222 -0.06906319 -0.06899473 -0.06891871 -0.06886276 
1.00000000e-05 -0.06914936 -0.06906992 -0.06900124 -0.06892464 -0.06886789 
8.11130831e-06 -0.06915764 -0.06907766 -0.06900804 -0.06893050 -0.06887288 
6.57933225e-06 -0.06916629 -0.06908525 -0.06901487 -0.06893612 -0.06887793 
5.33669923e-06 -0.06917505 -0.06909311 -0.06902152 -0.06894171 -0.06888286 
4.32876128e-06 -0.06918393 -0.06910114 -0.06902839 -0.06894738 -0.06888784 
3.51119173e-06 -0.06919291 -0.06910928 -0.06903544 -0.06895356 -0.06889287 
2.84803587e-06 -0.06920201 -0.06911732 -0.06904228 -0.06895893 -0.06889751 
2.31012970e-06 -0.06921123 -0.06912505 -0.06904887 -0.06896414 -0.06890177 
1.87381742e-06 -0.06922042 -0.06913287 -0.06905548 -0.06896902 -0.06890606 
1.51991108e-06 -0.06922895 -0.06914104 -0.06906194 -0.06897442 -0.06891038 
1.23284674e-06 -0.06923757 -0.06914904 -0.06906843 -0.06897993 -0.06891474 
1.00000000e-06 -0.06924629 -0.06915728 -0.06907537 -0.06898539 -0.06891913 
8.11130831e-07 -0.06925483 -0.06916446 -0.06908101 -0.06898975 -0.06892280 
6.57933225e-07 -0.06926378 -0.06917171 -0.06908676 -0.06899382 -0.06892637 
5.33669923e-07 -0.06927282 -0.06917864 -0.06909252 -0.06899805 -0.06893020 
4.32876128e-07 -0.06928197 -0.06918644 -0.06909838 -0.06900241 -0.06893443 
3.51119173e-07 -0.06929123 -0.06919391 -0.06910425 -0.06900698 -0.06893855 
2.84803587e-07 -0.06929988 -0.06920084 -0.06910968 -0.06901115 -0.06894217 
2.31012970e-07 -0.06930679 -0.06920720 -0.06911476 -0.06901482 -0.06894527 
1.87381742e-07 -0.06931369 -0.06921361 -0.06912003 -0.06901851 -0.06894800 
1.51991108e-07 -0.06932064 -0.06922019 -0.06912519 -0.06902201 -0.06895062 
1.23284674e-07 -0.06932765 -0.06922699 -0.06912992 -0.06902546 -0.06895325 
1.00000000e-07 -0.06933472 -0.06923326 -0.06913511 -0.06902931 -0.06895588 
P (bar) | log_He: -2σ | log_He: -1σ | log_He: median | log_He: +1σ | log_He: +2σ 
1.00000000e+02 -0.83911177 -0.83897402 -0.83885107 -0.83872425 -0.83864596 
8.11130831e+01 -0.83910940 -0.83897208 -0.83884949 -0.83872277 -0.83864471 
6.57933225e+01 -0.83910705 -0.83897013 -0.83884791 -0.83872130 -0.83864346 
5.33669923e+01 -0.83910472 -0.83896848 -0.83884633 -0.83871985 -0.83864222 
4.32876128e+01 -0.83910240 -0.83896684 -0.83884477 -0.83871840 -0.83864097 
3.51119173e+01 -0.83910052 -0.83896506 -0.83884322 -0.83871696 -0.83863973 
2.84803587e+01 -0.83909489 -0.83895958 -0.83883835 -0.83871262 -0.83863570 
2.31012970e+01 -0.83908439 -0.83895115 -0.83883018 -0.83870566 -0.83862902 
1.87381742e+01 -0.83907413 -0.83894252 -0.83882225 -0.83869854 -0.83862265 
1.51991108e+01 -0.83906500 -0.83893368 -0.83881454 -0.83869146 -0.83861657 
1.23284674e+01 -0.83905613 -0.83892556 -0.83880706 -0.83868463 -0.83861055 
1.00000000e+01 -0.83904792 -0.83891734 -0.83879978 -0.83867806 -0.83860470 
8.11130831e+00 -0.83902792 -0.83889903 -0.83878358 -0.83866379 -0.83859199 
6.57933225e+00 -0.83900936 -0.83888199 -0.83876860 -0.83865059 -0.83857963 
5.33669923e+00 -0.83899210 -0.83886629 -0.83875458 -0.83863839 -0.83856817 
4.32876128e+00 -0.83897602 -0.83885172 -0.83874158 -0.83862685 -0.83855751 
3.51119173e+00 -0.83896101 -0.83883815 -0.83872947 -0.83861611 -0.83854774 
2.84803587e+00 -0.83894531 -0.83882420 -0.83871707 -0.83860528 -0.83853789 
2.31012970e+00 -0.83892969 -0.83881057 -0.83870526 -0.83859469 -0.83852786 
1.87381742e+00 -0.83891577 -0.83879866 -0.83869470 -0.83858557 -0.83851983 
1.51991108e+00 -0.83890340 -0.83878788 -0.83868459 -0.83857736 -0.83851226 
1.23284674e+00 -0.83889233 -0.83877810 -0.83867559 -0.83857000 -0.83850548 
1.00000000e+00 -0.83888256 -0.83876955 -0.83866848 -0.83856313 -0.83849888 
8.11130831e-01 -0.83887652 -0.83876392 -0.83866341 -0.83855865 -0.83849465 
6.57933225e-01 -0.83887172 -0.83875909 -0.83865938 -0.83855496 -0.83849095 
5.33669923e-01 -0.83886774 -0.83875534 -0.83865583 -0.83855183 -0.83848784 
4.32876128e-01 -0.83886434 -0.83875202 -0.83865280 -0.83854923 -0.83848518 
3.51119173e-01 -0.83886142 -0.83874907 -0.83865033 -0.83854698 -0.83848287 
2.84803587e-01 -0.83885910 -0.83874676 -0.83864824 -0.83854523 -0.83848111 
2.31012970e-01 -0.83885733 -0.83874505 -0.83864671 -0.83854394 -0.83847984 
1.87381742e-01 -0.83885584 -0.83874364 -0.83864544 -0.83854286 -0.83847880 
1.51991108e-01 -0.83885459 -0.83874247 -0.83864439 -0.83854197 -0.83847793 
1.23284674e-01 -0.83885354 -0.83874150 -0.83864351 -0.83854122 -0.83847722 
1.00000000e-01 -0.83885266 -0.83874069 -0.83864278 -0.83854060 -0.83847663 
8.11130831e-02 -0.83884942 -0.83873835 -0.83864053 -0.83853846 -0.83847496 
6.57933225e-02 -0.83884634 -0.83873603 -0.83863836 -0.83853642 -0.83847340 
5.33669923e-02 -0.83884340 -0.83873361 -0.83863612 -0.83853453 -0.83847194 
4.32876128e-02 -0.83884111 -0.83873170 -0.83863417 -0.83853285 -0.83847058 
3.51119173e-02 -0.83883899 -0.83872998 -0.83863250 -0.83853130 -0.83846933 
2.84803587e-02 -0.83883199 -0.83872276 -0.83862540 -0.83852516 -0.83846408 
2.31012970e-02 -0.83882061 -0.83871018 -0.83861373 -0.83851355 -0.83845349 
1.87381742e-02 -0.83880967 -0.83869919 -0.83860177 -0.83850287 -0.83844379 
1.51991108e-02 -0.83879924 -0.83868827 -0.83859116 -0.83849296 -0.83843507 
1.23284674e-02 -0.83878825 -0.83867736 -0.83858199 -0.83848391 -0.83842540 
1.00000000e-02 -0.83877671 -0.83866819 -0.83857346 -0.83847569 -0.83841783 
8.11130831e-03 -0.83875043 -0.83864434 -0.83855131 -0.83845249 -0.83839389 
6.57933225e-03 -0.83872946 -0.83862368 -0.83852958 -0.83843314 -0.83837381 
5.33669923e-03 -0.83871119 -0.83860516 -0.83851233 -0.83841598 -0.83835813 
4.32876128e-03 -0.83869605 -0.83859010 -0.83849769 -0.83840088 -0.83834413 
3.51119173e-03 -0.83868466 -0.83857895 -0.83848689 -0.83839060 -0.83833372 
2.84803587e-03 -0.83866763 -0.83856494 -0.83847472 -0.83838019 -0.83832371 
2.31012970e-03 -0.83864642 -0.83854926 -0.83846151 -0.83837017 -0.83831484 
1.87381742e-03 -0.83863173 -0.83853893 -0.83845341 -0.83836560 -0.83831011 
1.51991108e-03 -0.83862439 -0.83853612 -0.83845195 -0.83836562 -0.83830943 
1.23284674e-03 -0.83862344 -0.83853792 -0.83845530 -0.83837038 -0.83831363 
1.00000000e-03 -0.83863237 -0.83854755 -0.83846402 -0.83837999 -0.83832273 
8.11130831e-04 -0.83861987 -0.83853858 -0.83845904 -0.83837694 -0.83832319 
6.57933225e-04 -0.83861266 -0.83853429 -0.83845680 -0.83837766 -0.83832528 
5.33669923e-04 -0.83861010 -0.83853356 -0.83845792 -0.83838095 -0.83832755 
4.32876128e-04 -0.83861334 -0.83853591 -0.83846158 -0.83838631 -0.83833273 
3.51119173e-04 -0.83861950 -0.83854051 -0.83846794 -0.83839317 -0.83833956 
2.84803587e-04 -0.83862442 -0.83854446 -0.83847290 -0.83839849 -0.83834569 
2.31012970e-04 -0.83862601 -0.83854595 -0.83847569 -0.83840147 -0.83834912 
1.87381742e-04 -0.83862742 -0.83854842 -0.83847888 -0.83840528 -0.83835248 
1.51991108e-04 -0.83862954 -0.83855148 -0.83848240 -0.83840901 -0.83835616 
1.23284674e-04 -0.83863217 -0.83855488 -0.83848612 -0.83841299 -0.83836031 
1.00000000e-04 -0.83863638 -0.83855841 -0.83849016 -0.83841726 -0.83836458 
8.11130831e-05 -0.83864159 -0.83856309 -0.83849493 -0.83842201 -0.83836902 
6.57933225e-05 -0.83864627 -0.83856768 -0.83850001 -0.83842675 -0.83837387 
5.33669923e-05 -0.83865091 -0.83857254 -0.83850516 -0.83843157 -0.83837868 
4.32876128e-05 -0.83865563 -0.83857753 -0.83851026 -0.83843652 -0.83838352 
3.51119173e-05 -0.83866043 -0.83858254 -0.83851523 -0.83844156 -0.83838840 
2.84803587e-05 -0.83866614 -0.83858823 -0.83852079 -0.83844683 -0.83839338 
2.31012970e-05 -0.83867280 -0.83859463 -0.83852696 -0.83845250 -0.83839845 
1.87381742e-05 -0.83867953 -0.83860110 -0.83853321 -0.83845819 -0.83840357 
1.51991108e-05 -0.83868633 -0.83860771 -0.83853945 -0.83846395 -0.83840875 
1.23284674e-05 -0.83869330 -0.83861427 -0.83854581 -0.83846979 -0.83841384 
1.00000000e-05 -0.83870044 -0.83862100 -0.83855232 -0.83847572 -0.83841897 
8.11130831e-06 -0.83870872 -0.83862874 -0.83855912 -0.83848158 -0.83842396 
6.57933225e-06 -0.83871737 -0.83863633 -0.83856595 -0.83848720 -0.83842900 
5.33669923e-06 -0.83872613 -0.83864419 -0.83857260 -0.83849279 -0.83843394 
4.32876128e-06 -0.83873501 -0.83865222 -0.83857947 -0.83849846 -0.83843892 
3.51119173e-06 -0.83874399 -0.83866036 -0.83858652 -0.83850464 -0.83844395 
2.84803587e-06 -0.83875309 -0.83866840 -0.83859336 -0.83851001 -0.83844859 
2.31012970e-06 -0.83876231 -0.83867613 -0.83859994 -0.83851521 -0.83845285 
1.87381742e-06 -0.83877150 -0.83868395 -0.83860656 -0.83852010 -0.83845713 
1.51991108e-06 -0.83878002 -0.83869211 -0.83861302 -0.83852550 -0.83846146 
1.23284674e-06 -0.83878865 -0.83870011 -0.83861950 -0.83853101 -0.83846581 
1.00000000e-06 -0.83879737 -0.83870836 -0.83862645 -0.83853647 -0.83847021 
8.11130831e-07 -0.83880591 -0.83871554 -0.83863209 -0.83854083 -0.83847387 
6.57933225e-07 -0.83881486 -0.83872279 -0.83863784 -0.83854490 -0.83847745 
5.33669923e-07 -0.83882390 -0.83872972 -0.83864360 -0.83854913 -0.83848128 
4.32876128e-07 -0.83883305 -0.83873752 -0.83864946 -0.83855349 -0.83848551 
3.51119173e-07 -0.83884230 -0.83874499 -0.83865533 -0.83855806 -0.83848963 
2.84803587e-07 -0.83885096 -0.83875192 -0.83866075 -0.83856222 -0.83849324 
2.31012970e-07 -0.83885787 -0.83875827 -0.83866584 -0.83856590 -0.83849635 
1.87381742e-07 -0.83886477 -0.83876468 -0.83867111 -0.83856959 -0.83849908 
1.51991108e-07 -0.83887172 -0.83877127 -0.83867627 -0.83857309 -0.83850170 
1.23284674e-07 -0.83887873 -0.83877807 -0.83868100 -0.83857654 -0.83850432 
1.00000000e-07 -0.83888580 -0.83878434 -0.83868619 -0.83858039 -0.83850696 
P (bar) | log_H2O: -2σ | log_H2O: -1σ | log_H2O: median | log_H2O: +1σ | log_H2O: +2σ 
1.00000000e+02 -2.87810311 -2.83511942 -2.77991777 -2.73299171 -2.69135529 
8.11130831e+01 -2.87834488 -2.83536422 -2.78014980 -2.73322578 -2.69164355 
6.57933225e+01 -2.87858665 -2.83560902 -2.78038183 -2.73345985 -2.69193181 
5.33669923e+01 -2.87882843 -2.83585382 -2.78062792 -2.73369392 -2.69222007 
4.32876128e+01 -2.87907020 -2.83609862 -2.78088395 -2.73392798 -2.69250833 
3.51119173e+01 -2.87931197 -2.83634342 -2.78113999 -2.73416385 -2.69279660 
2.84803587e+01 -2.88013592 -2.83717838 -2.78195494 -2.73492415 -2.69361361 
2.31012970e+01 -2.88154205 -2.83853697 -2.78339982 -2.73622717 -2.69485278 
1.87381742e+01 -2.88294818 -2.83987678 -2.78478109 -2.73753802 -2.69609196 
1.51991108e+01 -2.88435431 -2.84120966 -2.78622358 -2.73888017 -2.69733113 
1.23284674e+01 -2.88576044 -2.84268877 -2.78761606 -2.74022232 -2.69857031 
1.00000000e+01 -2.88716657 -2.84416788 -2.78894871 -2.74155500 -2.69980948 
8.11130831e+00 -2.88970198 -2.84671318 -2.79148327 -2.74412368 -2.70242678 
6.57933225e+00 -2.89223738 -2.84925848 -2.79401784 -2.74669235 -2.70504407 
5.33669923e+00 -2.89477278 -2.85180378 -2.79655240 -2.74926103 -2.70766137 
4.32876128e+00 -2.89730818 -2.85434671 -2.79908697 -2.75182971 -2.71027867 
3.51119173e+00 -2.89984358 -2.85688611 -2.80162154 -2.75439839 -2.71289596 
2.84803587e+00 -2.90202347 -2.85904910 -2.80385808 -2.75665328 -2.71521194 
2.31012970e+00 -2.90384784 -2.86081322 -2.80579659 -2.75857839 -2.71722660 
1.87381742e+00 -2.90567221 -2.86257734 -2.80765374 -2.76050350 -2.71924127 
1.51991108e+00 -2.90749658 -2.86442994 -2.80952492 -2.76244682 -2.72125593 
1.23284674e+00 -2.90932095 -2.86637484 -2.81133263 -2.76440769 -2.72327059 
1.00000000e+00 -2.91114532 -2.86827501 -2.81320588 -2.76639170 -2.72515308 
8.11130831e-01 -2.91153433 -2.86864865 -2.81358360 -2.76678380 -2.72548801 
6.57933225e-01 -2.91192334 -2.86903330 -2.81396132 -2.76717590 -2.72582294 
5.33669923e-01 -2.91231235 -2.86942477 -2.81433905 -2.76756800 -2.72615787 
4.32876128e-01 -2.91270136 -2.86981623 -2.81473961 -2.76796010 -2.72649280 
3.51119173e-01 -2.91309036 -2.87020770 -2.81514474 -2.76835220 -2.72682773 
2.84803587e-01 -2.91329467 -2.87041309 -2.81535585 -2.76855911 -2.72701693 
2.31012970e-01 -2.91331426 -2.87043241 -2.81537295 -2.76858296 -2.72706041 
1.87381742e-01 -2.91333386 -2.87045172 -2.81539004 -2.76860682 -2.72710389 
1.51991108e-01 -2.91335346 -2.87047104 -2.81540714 -2.76863068 -2.72714736 
1.23284674e-01 -2.91337306 -2.87049036 -2.81542423 -2.76865454 -2.72719084 
1.00000000e-01 -2.91339265 -2.87050967 -2.81544133 -2.76867840 -2.72723432 
8.11130831e-02 -2.91395383 -2.87103534 -2.81600926 -2.76917885 -2.72788990 
6.57933225e-02 -2.91451500 -2.87158220 -2.81658109 -2.76967930 -2.72840624 
5.33669923e-02 -2.91507618 -2.87211720 -2.81715291 -2.77015045 -2.72886990 
4.32876128e-02 -2.91563735 -2.87265295 -2.81770891 -2.77062618 -2.72933355 
3.51119173e-02 -2.91619853 -2.87320999 -2.81829657 -2.77110192 -2.72979721 
2.84803587e-02 -2.91816510 -2.87552718 -2.82043389 -2.77290484 -2.73148156 
2.31012970e-02 -2.92188395 -2.87937531 -2.82395541 -2.77594342 -2.73438659 
1.87381742e-02 -2.92637482 -2.88329082 -2.82729818 -2.77928329 -2.73755434 
1.51991108e-02 -2.93049621 -2.88705251 -2.83061178 -2.78239126 -2.74139971 
1.23284674e-02 -2.93512989 -2.89085983 -2.83414334 -2.78559350 -2.74425587 
1.00000000e-02 -2.93963637 -2.89490445 -2.83781079 -2.78889885 -2.74700219 
8.11130831e-03 -2.94512295 -2.90088743 -2.84301759 -2.79347924 -2.75142323 
6.57933225e-03 -2.95156674 -2.90697089 -2.84831573 -2.79865140 -2.75584427 
5.33669923e-03 -2.95958108 -2.91305432 -2.85381106 -2.80362133 -2.76026531 
4.32876128e-03 -2.96949014 -2.91892863 -2.85903150 -2.80855554 -2.76480738 
3.51119173e-03 -2.97654344 -2.92553789 -2.86436618 -2.81344144 -2.76956241 
2.84803587e-03 -2.98179261 -2.93029296 -2.86956165 -2.81857369 -2.77524115 
2.31012970e-03 -2.98501930 -2.93364097 -2.87429857 -2.82400578 -2.78184363 
1.87381742e-03 -2.98778273 -2.93695996 -2.87862147 -2.82939009 -2.78870688 
1.51991108e-03 -2.99054617 -2.94025774 -2.88329978 -2.83486163 -2.79553695 
1.23284674e-03 -2.99330960 -2.94358602 -2.88814980 -2.84031844 -2.80207069 
1.00000000e-03 -2.99607303 -2.94732706 -2.89292293 -2.84568316 -2.80860444 
8.11130831e-04 -3.00024228 -2.95216074 -2.89904010 -2.85291238 -2.81660451 
6.57933225e-04 -3.00486389 -2.95686677 -2.90495698 -2.86004835 -2.82389520 
5.33669923e-04 -3.00858077 -2.96205868 -2.91133594 -2.86686260 -2.83019714 
