P (bar) | T: -2σ | T: -1σ  | T: median | T: +1σ | T: +2σ 
1.00000000e+02 3.09325296e+02 3.59928357e+02 5.39735089e+02 9.02572628e+02 1.38517677e+03 
8.11130831e+01 3.09327565e+02 3.59930315e+02 5.39736562e+02 9.02572502e+02 1.38517460e+03 
6.57933225e+01 3.09335533e+02 3.59937190e+02 5.39741735e+02 9.02572060e+02 1.38516699e+03 
5.33669923e+01 3.09359879e+02 3.59958197e+02 5.39757539e+02 9.02570711e+02 1.38514375e+03 
4.32876128e+01 3.09426337e+02 3.60015541e+02 5.39800678e+02 9.02567027e+02 1.38508031e+03 
3.51119173e+01 3.09589694e+02 3.60156496e+02 5.39906718e+02 9.02557971e+02 1.38492438e+03 
2.84803587e+01 3.09952567e+02 3.60507151e+02 5.40142270e+02 9.02537856e+02 1.38457798e+03 
2.31012970e+01 3.10683042e+02 3.61392496e+02 5.40616443e+02 9.02497363e+02 1.38388069e+03 
1.87381742e+01 3.12019591e+02 3.62659852e+02 5.41471317e+02 9.02423273e+02 1.38260484e+03 
1.51991108e+01 3.14250307e+02 3.64977266e+02 5.42932061e+02 9.02272460e+02 1.38047545e+03 
1.23284674e+01 3.17718205e+02 3.68052951e+02 5.45146365e+02 9.01962120e+02 1.37721919e+03 
1.00000000e+01 3.22873781e+02 3.72290446e+02 5.48124151e+02 9.01524906e+02 1.37263172e+03 
8.11130831e+00 3.28747227e+02 3.77973284e+02 5.53518710e+02 9.02194626e+02 1.36663697e+03 
6.57933225e+00 3.36421771e+02 3.84825080e+02 5.58660689e+02 9.03652690e+02 1.35931100e+03 
5.33669923e+00 3.44855426e+02 3.92779087e+02 5.65112453e+02 9.03236604e+02 1.35085818e+03 
4.32876128e+00 3.53982223e+02 4.02027796e+02 5.70683466e+02 9.02559048e+02 1.34155180e+03 
3.51119173e+00 3.64205129e+02 4.11470469e+02 5.77232406e+02 9.02427408e+02 1.33166688e+03 
2.84803587e+00 3.74439548e+02 4.21162785e+02 5.85382811e+02 9.04439761e+02 1.32143105e+03 
2.31012970e+00 3.85179697e+02 4.31624507e+02 5.92566064e+02 9.05988489e+02 1.31100476e+03 
1.87381742e+00 3.95976619e+02 4.42550342e+02 6.00331043e+02 9.09633216e+02 1.30048598e+03 
1.51991108e+00 4.06470580e+02 4.52161386e+02 6.06425718e+02 9.09754978e+02 1.28992700e+03 
1.23284674e+00 4.16965560e+02 4.61320876e+02 6.14992841e+02 9.09876920e+02 1.27935239e+03 
1.00000000e+00 4.27201412e+02 4.70828802e+02 6.23233073e+02 9.09998925e+02 1.26877233e+03 
8.11130831e-01 4.37318365e+02 4.80208640e+02 6.30427018e+02 9.12976282e+02 1.25819058e+03 
6.57933225e-01 4.46907561e+02 4.89434554e+02 6.37836059e+02 9.15391664e+02 1.24760836e+03 
5.33669923e-01 4.56757267e+02 4.99000109e+02 6.44126765e+02 9.14215868e+02 1.23702614e+03 
4.32876128e-01 4.66705814e+02 5.08810832e+02 6.51265391e+02 9.15632535e+02 1.22644392e+03 
3.51119173e-01 4.76654361e+02 5.18391342e+02 6.59345457e+02 9.20218903e+02 1.21893188e+03 
2.84803587e-01 4.86602908e+02 5.27445386e+02 6.65539222e+02 9.23841705e+02 1.20700506e+03 
2.31012970e-01 4.96972240e+02 5.37091030e+02 6.72893002e+02 9.25970777e+02 1.19507823e+03 
1.87381742e-01 5.07658367e+02 5.46844928e+02 6.80841487e+02 9.30703912e+02 1.18546607e+03 
1.51991108e-01 5.18083680e+02 5.56922455e+02 6.86936743e+02 9.31028978e+02 1.18392612e+03 
1.23284674e-01 5.27711650e+02 5.67056147e+02 6.93057393e+02 9.33557729e+02 1.18224746e+03 
1.00000000e-01 5.37501071e+02 5.76079337e+02 6.98533361e+02 9.38277605e+02 1.18084623e+03 
8.11130831e-02 5.48018923e+02 5.86088993e+02 7.05244591e+02 9.39837414e+02 1.17205934e+03 
6.57933225e-02 5.57996782e+02 5.95821114e+02 7.10859972e+02 9.43713387e+02 1.16128440e+03 
5.33669923e-02 5.67171684e+02 6.05943533e+02 7.17582941e+02 9.50069643e+02 1.15299181e+03 
4.32876128e-02 5.76495002e+02 6.15317509e+02 7.23354262e+02 9.59412536e+02 1.14438989e+03 
3.51119173e-02 5.86088377e+02 6.24648611e+02 7.28176083e+02 9.59997045e+02 1.13175911e+03 
2.84803587e-02 5.95896989e+02 6.34228911e+02 7.33917107e+02 9.61915511e+02 1.12247830e+03 
2.31012970e-02 6.05225789e+02 6.44046673e+02 7.39116524e+02 9.61892026e+02 1.11859669e+03 
1.87381742e-02 6.15115507e+02 6.53306823e+02 7.45027459e+02 9.67524965e+02 1.12388475e+03 
1.51991108e-02 6.25610767e+02 6.62756277e+02 7.49854422e+02 9.69568225e+02 1.13037903e+03 
1.23284674e-02 6.34774027e+02 6.72326496e+02 7.57506271e+02 9.66749827e+02 1.13143186e+03 
1.00000000e-02 6.43667386e+02 6.81237358e+02 7.63753511e+02 9.66872741e+02 1.13890682e+03 
8.11130831e-03 6.52850898e+02 6.90703757e+02 7.69676731e+02 9.66578469e+02 1.14459965e+03 
6.57933225e-03 6.61454104e+02 6.99892387e+02 7.75836506e+02 9.68223994e+02 1.15530910e+03 
5.33669923e-03 6.70596304e+02 7.09248735e+02 7.82283939e+02 9.66676822e+02 1.15626088e+03 
4.32876128e-03 6.79489452e+02 7.18711303e+02 7.87716749e+02 9.65778296e+02 1.16581604e+03 
3.51119173e-03 6.88622984e+02 7.28902359e+02 7.93473951e+02 9.61559365e+02 1.17268289e+03 
2.84803587e-03 6.98411011e+02 7.37913966e+02 7.99874925e+02 9.59529334e+02 1.19184035e+03 
2.31012970e-03 7.08573183e+02 7.47139009e+02 8.06140740e+02 9.55718558e+02 1.20485250e+03 
1.87381742e-03 7.18716555e+02 7.55044496e+02 8.12443090e+02 9.54113554e+02 1.21485041e+03 
1.51991108e-03 7.26899529e+02 7.64489584e+02 8.18695950e+02 9.52162369e+02 1.23087682e+03 
1.23284674e-03 7.35415199e+02 7.73712662e+02 8.25159541e+02 9.49517709e+02 1.24388897e+03 
1.00000000e-03 7.45122522e+02 7.83019054e+02 8.30877446e+02 9.46526050e+02 1.25690113e+03 
8.11130831e-04 7.53934884e+02 7.91597915e+02 8.36889939e+02 9.44841129e+02 1.27476840e+03 
6.57933225e-04 7.63194726e+02 7.99620483e+02 8.42618143e+02 9.40543330e+02 1.29289911e+03 
5.33669923e-04 7.70160758e+02 8.06832156e+02 8.50088085e+02 9.36980512e+02 1.31142769e+03 
4.32876128e-04 7.78194434e+02 8.14775563e+02 8.56073294e+02 9.35047353e+02 1.32916052e+03 
3.51119173e-04 7.87369337e+02 8.22175771e+02 8.61075779e+02 9.34044427e+02 1.34729123e+03 
2.84803587e-04 7.92942705e+02 8.29467657e+02 8.66061842e+02 9.35137138e+02 1.36542193e+03 
2.31012970e-04 7.99852902e+02 8.35812998e+02 8.70938185e+02 9.37066484e+02 1.38330263e+03 
1.87381742e-04 8.03842867e+02 8.40781676e+02 8.76786520e+02 9.38092899e+02 1.40014785e+03 
1.51991108e-04 8.08673179e+02 8.45721821e+02 8.83475170e+02 9.41325791e+02 1.41699307e+03 
1.23284674e-04 8.09751264e+02 8.50080730e+02 8.89756971e+02 9.46129548e+02 1.43624850e+03 
1.00000000e-04 8.03155534e+02 8.54316230e+02 8.94741601e+02 9.52927910e+02 1.45152584e+03 
8.11130831e-05 8.00288569e+02 8.59579032e+02 9.01070954e+02 9.58956756e+02 1.46752453e+03 
6.57933225e-05 7.91158075e+02 8.64321078e+02 9.06239957e+02 9.66471404e+02 1.48435765e+03 
5.33669923e-05 7.87834428e+02 8.67300669e+02 9.12557659e+02 9.74606163e+02 1.50116587e+03 
4.32876128e-05 7.76672140e+02 8.71457056e+02 9.18907234e+02 9.82463897e+02 1.51791011e+03 
3.51119173e-05 7.72301692e+02 8.74802420e+02 9.25634907e+02 9.91584697e+02 1.53450710e+03 
2.84803587e-05 7.61266524e+02 8.75903246e+02 9.32841465e+02 9.98761440e+02 1.54990003e+03 
2.31012970e-05 7.49655089e+02 8.77480728e+02 9.39088966e+02 1.00640326e+03 1.56282568e+03 
1.87381742e-05 7.42946002e+02 8.77797465e+02 9.45473347e+02 1.01498193e+03 1.57499482e+03 
1.51991108e-05 7.35186935e+02 8.78041849e+02 9.51643950e+02 1.02303805e+03 1.58604784e+03 
1.23284674e-05 7.31521257e+02 8.78542532e+02 9.56154197e+02 1.02858914e+03 1.59806671e+03 
1.00000000e-05 7.27249178e+02 8.79313970e+02 9.60388666e+02 1.03286679e+03 1.60849562e+03 
8.11130831e-06 7.23942009e+02 8.79828410e+02 9.62387940e+02 1.03763119e+03 1.61647632e+03 
6.57933225e-06 7.21594534e+02 8.80418726e+02 9.64861218e+02 1.04069663e+03 1.62214114e+03 
5.33669923e-06 7.20059424e+02 8.80586057e+02 9.66534797e+02 1.04218502e+03 1.62584560e+03 
4.32876128e-06 7.19369790e+02 8.80372348e+02 9.67499924e+02 1.04307680e+03 1.62806515e+03 
3.51119173e-06 7.19093872e+02 8.80384028e+02 9.67855124e+02 1.04352520e+03 1.62927822e+03 
2.84803587e-06 7.18956806e+02 8.80405709e+02 9.68031574e+02 1.04373986e+03 1.62988082e+03 
2.31012970e-06 7.18895102e+02 8.80415470e+02 9.68079880e+02 1.04383649e+03 1.63015210e+03 
1.87381742e-06 7.18869999e+02 8.80419441e+02 9.68110619e+02 1.04387580e+03 1.63026247e+03 
1.51991108e-06 7.18860803e+02 8.80420895e+02 9.68128618e+02 1.04389020e+03 1.63030290e+03 
1.23284674e-06 7.18857793e+02 8.80421372e+02 9.68134509e+02 1.04389492e+03 1.63031613e+03 
1.00000000e-06 7.18856936e+02 8.80421507e+02 9.68136187e+02 1.04389626e+03 1.63031990e+03 
8.11130831e-07 7.18856749e+02 8.80421537e+02 9.68136552e+02 1.04389655e+03 1.63032072e+03 
6.57933225e-07 7.18856749e+02 8.80421537e+02 9.68136552e+02 1.04389655e+03 1.63032072e+03 
5.33669923e-07 7.18856749e+02 8.80421537e+02 9.68136552e+02 1.04389655e+03 1.63032072e+03 
4.32876128e-07 7.18856749e+02 8.80421537e+02 9.68136552e+02 1.04389655e+03 1.63032072e+03 
3.51119173e-07 7.18856749e+02 8.80421537e+02 9.68136552e+02 1.04389655e+03 1.63032072e+03 
2.84803587e-07 7.18856749e+02 8.80421537e+02 9.68136552e+02 1.04389655e+03 1.63032072e+03 
2.31012970e-07 7.18856749e+02 8.80421537e+02 9.68136552e+02 1.04389655e+03 1.63032072e+03 
1.87381742e-07 7.18856749e+02 8.80421537e+02 9.68136552e+02 1.04389655e+03 1.63032072e+03 
1.51991108e-07 7.18856749e+02 8.80421537e+02 9.68136552e+02 1.04389655e+03 1.63032072e+03 
1.23284674e-07 7.18856749e+02 8.80421537e+02 9.68136552e+02 1.04389655e+03 1.63032072e+03 
1.00000000e-07 7.18856749e+02 8.80421537e+02 9.68136552e+02 1.04389655e+03 1.63032072e+03 
